# bioPlux Text File Format
# Version: 1
# StartDateTime: 2011-07-18 11:32:43
# SamplingFrequency: 1000
# SampledChannels: 1 2 3 4 5
# SamplingResolution: 12
# AcquiringDevice: 00:07:80:42:0F:95
# EndOfHeader
0	0	0	4016	1797	187	405	3853
1	0	0	4030	1797	187	404	3854
2	0	0	3325	1791	186	404	3854
3	0	0	2084	1792	185	405	3854
4	0	0	1212	1792	183	405	3854
5	0	0	704	1794	182	405	3854
6	0	0	406	1795	182	405	3854
7	0	0	241	1797	179	406	3854
8	0	0	150	1798	181	405	3854
9	0	0	104	1798	180	405	3854
10	0	0	81	1799	181	405	3854
11	0	0	252	1804	181	405	3854
12	0	0	1036	1804	180	405	3854
13	0	0	1892	1802	182	405	3854
14	0	0	2755	1801	183	404	3854
15	0	0	3298	1800	184	404	3854
16	0	0	3623	1800	185	405	3861
17	0	0	3818	1799	184	405	3854
18	0	0	3926	1798	187	405	3855
19	0	0	3983	1796	187	405	3854
20	0	0	4015	1797	187	405	3853
21	0	0	4030	1797	186	405	3854
22	0	0	3335	1791	185	404	3854
23	0	0	2096	1791	185	405	3854
24	0	0	1211	1792	185	405	3854
25	0	0	703	1793	183	405	3854
26	0	0	409	1795	182	405	3854
27	0	0	243	1797	180	404	3854
28	0	0	151	1798	181	405	3854
29	0	0	104	1799	181	405	3854
30	0	0	80	1799	181	405	3854
31	0	0	246	1803	181	404	3855
32	0	0	1035	1803	181	404	3855
33	0	0	1911	1802	182	404	3854
34	0	0	2768	1801	183	405	3854
35	0	0	3312	1800	184	405	3854
36	0	0	3631	1799	185	405	3854
37	0	0	3820	1798	186	405	3854
38	0	0	3928	1797	187	405	3853
39	0	0	3985	1797	187	405	3854
40	0	0	4016	1796	187	405	3855
41	0	0	4030	1797	187	405	3854
42	0	0	3314	1790	184	405	3854
43	0	0	2079	1791	185	404	3855
44	0	0	1210	1792	183	405	3855
45	0	0	703	1793	183	405	3855
46	0	0	406	1795	181	405	3854
47	0	0	240	1797	181	404	3854
48	0	0	150	1797	180	405	3854
49	0	0	103	1799	180	405	3855
50	0	0	81	1798	181	405	3853
51	0	0	232	1803	181	405	3855
52	0	0	1002	1803	182	404	3855
53	0	0	1872	1801	183	404	3854
54	0	0	2744	1801	184	405	3855
55	0	0	3292	1800	184	405	3854
56	0	0	3620	1798	185	405	3854
57	0	0	3815	1797	186	405	3854
58	0	0	3923	1796	186	405	3854
59	0	0	3983	1796	188	405	3854
60	0	0	4016	1796	188	405	3854
61	0	0	4029	1796	187	405	3854
62	0	0	3331	1790	186	404	3854
63	0	0	2090	1790	185	404	3855
64	0	0	1208	1791	184	404	3854
65	0	0	702	1793	182	405	3854
66	0	0	408	1795	182	405	3854
67	0	0	241	1797	180	405	3854
68	0	0	150	1798	180	404	3854
69	0	0	104	1798	181	405	3854
70	0	0	81	1798	181	405	3855
71	0	0	241	1803	183	404	3854
72	0	0	1028	1802	183	405	3854
73	0	0	1897	1802	182	405	3855
74	0	0	2759	1800	184	405	3854
75	0	0	3305	1799	185	405	3854
76	0	0	3630	1799	185	405	3855
77	0	0	3819	1798	187	405	3855
78	0	0	3926	1796	187	405	3854
79	0	0	3987	1796	188	405	3855
80	0	0	4015	1795	187	405	3854
81	0	0	4030	1796	186	404	3855
82	0	0	3333	1789	186	404	3855
83	0	0	2093	1789	185	404	3854
84	0	0	1218	1791	183	404	3854
85	0	0	702	1793	183	405	3854
86	0	0	409	1794	182	405	3854
87	0	0	242	1795	181	405	3854
88	0	0	152	1796	181	405	3853
89	0	0	104	1798	180	405	3854
90	0	0	81	1798	181	405	3855
91	0	0	232	1802	181	405	3854
92	0	0	993	1802	181	405	3855
93	0	0	1878	1801	182	405	3855
94	0	0	2744	1799	183	405	3855
95	0	0	3293	1799	184	406	3854
96	0	0	3624	1798	184	405	3854
97	0	0	3816	1796	186	404	3854
98	0	0	3923	1795	188	405	3854
99	0	0	3983	1795	187	405	3854
100	0	0	4015	1795	187	405	3853
101	0	0	4030	1795	187	405	3854
102	0	0	3355	1789	186	404	3854
103	0	0	2111	1790	185	404	3853
104	0	0	1220	1791	184	404	3854
105	0	0	709	1792	183	405	3854
106	0	0	412	1794	183	405	3855
107	0	0	243	1795	181	405	3855
108	0	0	152	1796	180	405	3855
109	0	0	104	1797	181	405	3855
110	0	0	81	1798	181	405	3854
111	0	0	237	1802	182	405	3855
112	0	0	1013	1801	182	405	3855
113	0	0	1863	1800	182	405	3855
114	0	0	2735	1800	184	405	3855
115	0	0	3286	1798	184	405	3854
116	0	0	3617	1798	185	405	3855
117	0	0	3812	1797	186	405	3854
118	0	0	3923	1795	187	405	3853
119	0	0	3985	1795	187	405	3855
120	0	0	4015	1795	187	405	3854
121	0	0	4030	1795	187	404	3855
122	0	0	3342	1789	186	405	3855
123	0	0	2108	1789	185	404	3854
124	0	0	1227	1790	185	404	3855
125	0	0	708	1792	183	405	3855
126	0	0	411	1794	183	404	3855
127	0	0	244	1795	182	404	3854
0	0	0	153	1795	180	405	3855
1	0	0	105	1796	180	405	3854
2	0	0	83	1797	180	405	3854
3	0	0	205	1801	180	406	3854
4	0	0	987	1801	180	404	3854
5	0	0	1872	1799	183	404	3854
6	0	0	2744	1798	183	405	3855
7	0	0	3292	1797	183	405	3853
8	0	0	3625	1798	184	404	3854
9	0	0	3816	1796	186	405	3854
10	0	0	3924	1795	187	405	3853
11	0	0	3984	1794	187	405	3854
12	0	0	4015	1794	188	405	3854
13	0	0	4031	1794	187	405	3855
14	0	0	3370	1788	185	405	3855
15	0	0	2117	1789	185	404	3855
16	0	0	1231	1790	184	404	3855
17	0	0	716	1791	184	405	3855
18	0	0	416	1792	182	404	3854
19	0	0	245	1794	181	405	3854
20	0	0	154	1795	181	405	3854
21	0	0	106	1797	181	405	3855
22	0	0	82	1797	181	405	3854
23	0	0	241	1800	180	405	3854
24	0	0	1024	1801	181	405	3855
25	0	0	1894	1798	183	405	3854
26	0	0	2765	1799	183	405	3855
27	0	0	3303	1798	184	405	3854
28	0	0	3628	1797	186	405	3855
29	0	0	3818	1796	187	405	3854
30	0	0	3927	1794	186	405	3855
31	0	0	3987	1795	188	406	3855
32	0	0	4017	1794	188	406	3855
33	0	0	4030	1794	187	404	3855
34	0	0	3385	1788	187	404	3854
35	0	0	2151	1788	184	404	3854
36	0	0	1252	1791	184	404	3855
37	0	0	722	1791	183	404	3854
38	0	0	420	1793	183	405	3855
39	0	0	248	1794	180	405	3855
40	0	0	155	1795	180	405	3854
41	0	0	106	1797	180	405	3855
42	0	0	82	1797	180	405	3854
43	0	0	209	1801	181	405	3855
44	0	0	1004	1800	181	405	3855
45	0	0	1885	1799	182	405	3855
46	0	0	2750	1799	183	405	3854
47	0	0	3296	1797	185	405	3855
48	0	0	3626	1797	186	405	3854
49	0	0	3817	1795	187	405	3855
50	0	0	3924	1794	187	405	3855
51	0	0	3986	1794	187	405	3855
52	0	0	4017	1793	188	405	3854
53	0	0	4029	1794	186	405	3854
54	0	0	3394	1787	188	405	3854
55	0	0	2148	1788	186	404	3854
56	0	0	1249	1790	184	404	3854
57	0	0	725	1791	182	404	3854
58	0	0	422	1793	181	405	3854
59	0	0	249	1794	181	405	3853
60	0	0	154	1795	180	405	3854
61	0	0	105	1795	180	405	3854
62	0	0	82	1795	181	405	3854
63	0	0	239	1800	180	405	3854
64	0	0	1011	1800	182	404	3855
65	0	0	1863	1800	183	405	3855
66	0	0	2733	1797	183	405	3855
67	0	0	3284	1797	183	405	3854
68	0	0	3615	1797	186	405	3855
69	0	0	3813	1795	186	405	3855
70	0	0	3922	1794	187	405	3854
71	0	0	3984	1794	187	405	3855
72	0	0	4013	1794	187	405	3853
73	0	0	4029	1794	187	404	3854
74	0	0	3409	1787	187	404	3854
75	0	0	2181	1788	185	404	3854
76	0	0	1269	1790	184	404	3854
77	0	0	732	1791	183	405	3855
78	0	0	426	1793	183	405	3854
79	0	0	251	1794	182	405	3854
80	0	0	155	1794	180	405	3855
81	0	0	106	1795	180	405	3854
82	0	0	82	1796	181	405	3854
83	0	0	234	1800	181	405	3855
84	0	0	1016	1800	182	404	3855
85	0	0	1873	1798	183	405	3856
86	0	0	2739	1797	184	405	3854
87	0	0	3288	1797	185	405	3854
88	0	0	3618	1796	186	405	3854
89	0	0	3812	1795	187	405	3853
90	0	0	3922	1793	188	405	3854
91	0	0	3982	1794	187	405	3854
92	0	0	4014	1794	186	405	3855
93	0	0	4030	1794	189	405	3854
94	0	0	3432	1787	186	404	3854
95	0	0	2212	1788	185	404	3855
96	0	0	1285	1789	184	404	3854
97	0	0	741	1791	182	404	3854
98	0	0	430	1792	182	405	3855
99	0	0	254	1794	179	405	3855
100	0	0	156	1794	181	405	3855
101	0	0	106	1796	181	405	3854
102	0	0	81	1796	180	405	3855
103	0	0	234	1800	180	406	3854
104	0	0	1012	1799	182	405	3854
105	0	0	1864	1799	182	405	3854
106	0	0	2727	1797	183	405	3854
107	0	0	3281	1797	184	404	3854
108	0	0	3616	1796	185	405	3855
109	0	0	3811	1796	188	405	3854
110	0	0	3920	1794	187	405	3854
111	0	0	3981	1793	187	405	3854
112	0	0	4012	1793	188	405	3854
113	0	0	4028	1794	186	405	3854
114	0	0	3442	1787	187	404	3854
115	0	0	2218	1788	185	404	3855
116	0	0	1289	1789	184	404	3855
117	0	0	748	1791	184	404	3855
118	0	0	430	1793	181	406	3854
119	0	0	254	1794	182	406	3854
120	0	0	156	1795	180	405	3854
121	0	0	105	1796	181	405	3855
122	0	0	80	1797	181	405	3854
123	0	0	251	1800	181	405	3854
124	0	0	1019	1800	181	404	3853
125	0	0	1863	1797	182	405	3854
126	0	0	2731	1798	184	405	3854
127	0	0	3282	1797	184	405	3855
0	0	0	3615	1796	186	405	3854
1	0	0	3810	1795	188	405	3854
2	0	0	3920	1793	187	405	3855
3	0	0	3980	1793	188	405	3854
4	0	0	4012	1792	188	404	3854
5	0	0	4025	1793	187	405	3855
6	0	0	3459	1787	186	404	3855
7	0	0	2252	1787	185	404	3855
8	0	0	1308	1789	184	404	3854
9	0	0	753	1790	182	404	3854
10	0	0	436	1793	181	406	3854
11	0	0	256	1794	181	405	3853
12	0	0	157	1795	179	405	3853
13	0	0	105	1795	180	405	3854
14	0	0	80	1797	179	405	3855
15	0	0	251	1801	180	405	3854
16	0	0	1024	1800	183	405	3854
17	0	0	1863	1799	184	405	3855
18	0	0	2721	1798	184	405	3855
19	0	0	3281	1796	184	404	3854
20	0	0	3612	1796	185	404	3854
21	0	0	3807	1795	186	405	3855
22	0	0	3917	1794	188	405	3855
23	0	0	3981	1793	188	405	3854
24	0	0	4010	1794	186	405	3855
25	0	0	4027	1794	188	405	3854
26	0	0	3481	1787	186	404	3854
27	0	0	2273	1787	184	405	3854
28	0	0	1319	1789	184	405	3854
29	0	0	765	1790	183	404	3854
30	0	0	439	1792	183	404	3854
31	0	0	257	1794	181	405	3854
32	0	0	158	1794	179	405	3854
33	0	0	105	1795	181	405	3854
34	0	0	80	1796	180	405	3854
35	0	0	268	1799	180	405	3854
36	0	0	1037	1799	182	405	3859
37	0	0	1885	1799	183	405	3856
38	0	0	2743	1797	183	405	3855
39	0	0	3289	1796	185	405	3855
40	0	0	3617	1796	185	405	3854
41	0	0	3811	1795	187	404	3853
42	0	0	3919	1793	187	405	3854
43	0	0	3978	1793	187	405	3854
44	0	0	4010	1793	187	405	3854
45	0	0	4023	1794	187	405	3854
46	0	0	3494	1787	186	404	3855
47	0	0	2295	1787	184	404	3854
48	0	0	1322	1789	184	404	3854
49	0	0	766	1790	183	404	3854
50	0	0	442	1791	181	404	3854
51	0	0	258	1794	181	404	3854
52	0	0	156	1794	180	405	3855
53	0	0	103	1794	181	405	3855
54	0	0	77	1796	180	405	3855
55	0	0	298	1800	180	406	3854
56	0	0	1058	1799	181	405	3855
57	0	0	1880	1799	182	405	3855
58	0	0	2720	1798	183	405	3854
59	0	0	3279	1797	185	405	3854
60	0	0	3610	1796	186	405	3854
61	0	0	3804	1795	187	405	3854
62	0	0	3914	1793	187	405	3854
63	0	0	3975	1792	188	405	3854
64	0	0	4006	1792	187	405	3854
65	0	0	4021	1793	187	405	3854
66	0	0	3534	1787	185	404	3855
67	0	0	2353	1787	184	404	3855
68	0	0	1365	1789	184	404	3855
69	0	0	790	1791	183	404	3854
70	0	0	451	1791	182	404	3854
71	0	0	263	1793	181	405	3855
72	0	0	158	1794	180	405	3855
73	0	0	103	1795	181	405	3854
74	0	0	76	1795	181	405	3854
75	0	0	325	1799	181	405	3853
76	0	0	1079	1800	182	405	3854
77	0	0	1922	1798	182	405	3854
78	0	0	2768	1797	183	405	3854
79	0	0	3301	1796	183	405	3854
80	0	0	3622	1795	185	405	3853
81	0	0	3812	1794	187	405	3854
82	0	0	3917	1792	187	405	3854
83	0	0	3975	1793	187	405	3854
84	0	0	4005	1792	188	405	3854
85	0	0	4019	1793	187	405	3855
86	0	0	3653	1787	187	404	3855
87	0	0	2506	1786	184	404	3855
88	0	0	1464	1788	184	404	3856
89	0	0	840	1790	183	405	3854
90	0	0	482	1791	182	404	3855
91	0	0	278	1792	181	406	3855
92	0	0	164	1793	181	405	3854
93	0	0	104	1794	180	405	3855
94	0	0	76	1795	180	404	3853
95	0	0	411	1798	181	404	3854
96	0	0	1184	1798	182	405	3854
97	0	0	2009	1797	182	405	3854
98	0	0	2820	1796	183	405	3854
99	0	0	3335	1795	184	404	3854
100	0	0	3640	1795	185	404	3854
101	0	0	3819	1794	187	405	3854
102	0	0	3918	1792	188	406	3854
103	0	0	3974	1791	187	404	3854
104	0	0	4001	1791	188	404	3854
105	0	0	4013	1791	187	404	3855
106	0	0	3698	1786	186	404	3855
107	0	0	2566	1786	185	405	3855
108	0	0	1511	1787	183	405	3855
109	0	0	871	1789	184	405	3854
110	0	0	495	1790	181	404	3854
111	0	0	282	1791	182	403	3854
112	0	0	164	1792	181	405	3854
113	0	0	102	1793	181	405	3854
114	0	0	70	1793	181	406	3854
115	0	0	531	1797	182	405	3854
116	0	0	1316	1797	181	405	3854
117	0	0	2170	1797	183	405	3855
118	0	0	2930	1794	184	405	3854
119	0	0	3394	1795	185	405	3855
120	0	0	3672	1794	185	406	3854
121	0	0	3834	1793	187	404	3855
122	0	0	3925	1792	188	405	3855
123	0	0	3972	1791	188	404	3855
124	0	0	3997	1790	187	404	3855
125	0	0	4010	1791	187	405	3854
126	0	0	3766	1784	187	404	3858
127	0	0	2661	1785	186	404	3855
0	0	0	1573	1786	184	404	3854
1	0	0	903	1787	184	404	3853
2	0	0	512	1789	183	404	3853
3	0	0	288	1791	182	404	3854
4	0	0	162	1792	181	405	3854
5	0	0	96	1793	180	405	3855
6	0	0	63	1794	181	405	3854
7	0	0	370	1797	181	405	3854
8	0	0	1112	1797	181	405	3854
9	0	0	1912	1796	183	405	3855
10	0	0	2738	1796	184	405	3855
11	0	0	3280	1795	184	405	3855
12	0	0	3601	1794	186	404	3854
13	0	0	3789	1792	187	405	3854
14	0	0	3894	1791	188	404	3854
15	0	0	3954	1791	189	404	3854
16	0	0	3985	1791	187	404	3854
17	0	0	3999	1791	187	404	3854
18	0	0	3654	1786	186	404	3855
19	0	0	2535	1785	185	404	3854
20	0	0	1481	1787	185	404	3855
21	0	0	847	1788	183	404	3854
22	0	0	475	1790	183	404	3854
23	0	0	265	1791	182	403	3854
24	0	0	149	1792	181	405	3855
25	0	0	87	1793	182	405	3854
26	0	0	55	1794	180	405	3855
27	0	0	309	1800	181	406	3854
28	0	0	1048	1798	182	404	3854
29	0	0	1850	1797	183	404	3855
30	0	0	2670	1796	183	405	3855
31	0	0	3234	1794	184	405	3854
32	0	0	3571	1795	185	405	3854
33	0	0	3772	1794	186	405	3855
34	0	0	3884	1792	187	405	3854
35	0	0	3946	1791	187	404	3854
36	0	0	3980	1792	186	405	3855
37	0	0	3996	1793	187	406	3853
38	0	0	3616	1786	185	404	3854
39	0	0	2496	1786	184	404	3855
40	0	0	1440	1787	184	404	3855
41	0	0	823	1789	182	404	3854
42	0	0	463	1791	181	404	3854
43	0	0	257	1793	183	405	3855
44	0	0	142	1793	180	405	3855
45	0	0	83	1794	181	405	3854
46	0	0	52	1794	180	405	3854
47	0	0	330	1799	181	405	3854
48	0	0	1060	1800	181	405	3855
49	0	0	1839	1797	182	404	3854
50	0	0	2663	1797	183	404	3854
51	0	0	3233	1796	186	405	3853
52	0	0	3570	1796	185	405	3853
53	0	0	3768	1794	187	404	3854
54	0	0	3884	1794	187	405	3855
55	0	0	3944	1793	186	405	3854
56	0	0	3977	1792	187	405	3854
57	0	0	3992	1793	185	405	3854
58	0	0	3725	1787	186	404	3855
59	0	0	2636	1787	183	404	3855
60	0	0	1559	1789	184	404	3855
61	0	0	886	1790	183	404	3854
62	0	0	498	1791	183	400	3854
63	0	0	275	1793	181	405	3854
64	0	0	151	1795	180	406	3855
65	0	0	85	1795	180	405	3853
66	0	0	52	1795	180	405	3853
67	0	0	307	1800	181	405	3854
68	0	0	1035	1800	182	405	3854
69	0	0	1798	1798	181	405	3854
70	0	0	2625	1798	182	405	3855
71	0	0	3204	1797	184	405	3853
72	0	0	3553	1795	185	405	3854
73	0	0	3758	1795	186	404	3854
74	0	0	3873	1794	185	405	3855
75	0	0	3939	1793	187	405	3854
76	0	0	3972	1794	187	405	3854
77	0	0	3988	1794	186	405	3855
78	0	0	3727	1787	184	404	3854
79	0	0	2644	1787	184	399	3854
80	0	0	1576	1789	185	399	3854
81	0	0	899	1791	182	400	3854
82	0	0	504	1792	183	405	3853
83	0	0	276	1793	181	404	3854
84	0	0	151	1795	181	405	3854
85	0	0	83	1795	181	405	3853
86	0	0	49	1796	179	405	3853
87	0	0	389	1800	180	405	3853
88	0	0	1097	1800	182	405	3854
89	0	0	1854	1799	182	405	3854
90	0	0	2671	1798	183	405	3854
91	0	0	3231	1797	184	405	3854
92	0	0	3565	1796	185	405	3854
93	0	0	3763	1795	187	405	3855
94	0	0	3876	1793	187	405	3854
95	0	0	3937	1793	186	405	3854
96	0	0	3970	1794	186	406	3853
97	0	0	3986	1793	187	405	3854
98	0	0	3773	1788	185	400	3854
99	0	0	2730	1789	185	400	3853
100	0	0	1656	1789	184	400	3853
101	0	0	937	1790	181	404	3854
102	0	0	525	1793	181	405	3854
103	0	0	287	1793	182	405	3853
104	0	0	155	1794	181	404	3854
105	0	0	83	1795	180	405	3853
106	0	0	47	1796	180	405	3855
107	0	0	437	1801	181	405	3855
108	0	0	1141	1800	181	404	3855
109	0	0	1871	1799	182	404	3855
110	0	0	2661	1799	183	406	3855
111	0	0	3222	1797	183	405	3854
112	0	0	3560	1796	186	405	3854
113	0	0	3757	1795	187	405	3854
114	0	0	3869	1793	187	405	3854
115	0	0	3932	1792	187	405	3853
116	0	0	3965	1794	188	406	3853
117	0	0	3979	1794	186	406	3853
118	0	0	3829	1788	187	404	3854
119	0	0	2801	1788	185	404	3854
120	0	0	1734	1789	184	404	3853
121	0	0	987	1792	181	406	3854
122	0	0	552	1792	183	405	3854
123	0	0	298	1794	182	406	3854
124	0	0	158	1794	181	405	3854
125	0	0	82	1795	180	405	3854
126	0	0	44	1797	180	406	3854
127	0	0	462	1800	181	405	3854
0	0	0	1138	1800	182	405	3854
1	0	0	1853	1799	182	405	3854
2	0	0	2643	1798	183	405	3854
3	0	0	3207	1797	185	405	3853
4	0	0	3547	1796	186	405	3853
5	0	0	3749	1795	187	405	3853
6	0	0	3862	1794	189	405	3853
7	0	0	3924	1793	187	405	3853
8	0	0	3957	1793	187	405	3853
9	0	0	3973	1794	186	405	3853
10	0	0	3870	1788	185	404	3854
11	0	0	2893	1788	184	404	3854
12	0	0	1833	1789	184	404	3855
13	0	0	1036	1791	182	404	3853
14	0	0	577	1792	183	405	3854
15	0	0	311	1794	181	405	3855
16	0	0	162	1795	181	405	3854
17	0	0	81	1796	180	405	3856
18	0	0	40	1796	181	406	3853
19	0	0	466	1800	182	405	3853
20	0	0	1139	1800	181	405	3854
21	0	0	1827	1799	182	405	3854
22	0	0	2578	1798	183	405	3853
23	0	0	3165	1797	184	405	3852
24	0	0	3523	1796	185	406	3853
25	0	0	3731	1795	187	405	3853
26	0	0	3848	1794	186	405	3853
27	0	0	3915	1794	187	405	3853
28	0	0	3949	1793	187	405	3853
29	0	0	3966	1794	186	405	3854
30	0	0	3880	1788	185	400	3855
31	0	0	2916	1788	186	404	3854
32	0	0	1885	1790	183	404	3855
33	0	0	1074	1790	183	404	3854
34	0	0	592	1792	182	406	3854
35	0	0	318	1794	181	405	3854
36	0	0	163	1794	181	405	3854
37	0	0	80	1796	180	405	3854
38	0	0	37	1796	180	405	3853
39	0	0	417	1800	180	405	3853
40	0	0	1059	1801	180	405	3853
41	0	0	1728	1798	182	404	3854
42	0	0	2469	1798	183	405	3853
43	0	0	3097	1797	184	405	3853
44	0	0	3476	1797	185	405	3853
45	0	0	3704	1795	187	405	3854
46	0	0	3830	1793	187	405	3854
47	0	0	3902	1793	187	405	3853
48	0	0	3939	1793	188	405	3854
49	0	0	3958	1794	187	405	3854
50	0	0	3875	1788	185	404	3854
51	0	0	2948	1789	185	404	3855
52	0	0	1919	1789	184	400	3853
53	0	0	1098	1790	184	400	3853
54	0	0	610	1792	182	405	3853
55	0	0	326	1793	181	405	3853
56	0	0	164	1794	181	404	3853
57	0	0	78	1795	180	405	3853
58	0	0	32	1795	181	404	3853
59	0	0	456	1800	181	405	3853
60	0	0	1080	1800	181	405	3853
61	0	0	1732	1799	182	405	3854
62	0	0	2453	1799	183	405	3854
63	0	0	3090	1797	184	405	3854
64	0	0	3470	1796	187	405	3853
65	0	0	3695	1795	186	405	3854
66	0	0	3823	1794	187	405	3854
67	0	0	3897	1795	187	405	3854
68	0	0	3933	1793	187	405	3853
69	0	0	3952	1794	186	405	3853
70	0	0	3962	1785	186	404	3854
71	0	0	3138	1788	184	404	3853
72	0	0	2165	1789	185	404	3853
73	0	0	1321	1790	183	404	3854
74	0	0	731	1792	183	405	3853
75	0	0	393	1793	181	405	3853
76	0	0	200	1794	180	405	3853
77	0	0	94	1795	181	404	3853
78	0	0	71	1800	181	405	3853
79	0	0	640	1801	182	405	3853
80	0	0	1260	1800	183	405	3854
81	0	0	1906	1799	181	405	3854
82	0	0	2609	1798	182	405	3854
83	0	0	3175	1797	183	405	3853
84	0	0	3516	1796	185	405	3853
85	0	0	3719	1796	187	405	3853
86	0	0	3833	1794	185	404	3853
87	0	0	3898	1794	187	405	3854
88	0	0	3931	1793	189	405	3852
89	0	0	3945	1794	187	405	3853
90	0	0	3952	1795	186	405	3854
91	0	0	3413	1788	185	404	3853
92	0	0	2490	1790	184	404	3854
93	0	0	1679	1791	184	404	3853
94	0	0	1051	1791	183	400	3853
95	0	0	645	1794	181	406	3853
96	0	0	471	1794	181	405	3862
97	0	0	284	1795	181	405	3853
98	0	0	442	1800	181	405	3853
99	0	0	935	1800	181	405	3853
100	0	0	1484	1799	181	405	3854
101	0	0	2070	1799	182	405	3854
102	0	0	2715	1798	183	405	3853
103	0	0	3238	1797	185	405	3853
104	0	0	3544	1796	185	405	3852
105	0	0	3726	1795	186	405	3853
106	0	0	3829	1795	188	405	3853
107	0	0	3884	1794	187	405	3852
108	0	0	3913	1793	188	405	3854
109	0	0	3928	1794	187	406	3853
110	0	0	3931	1795	186	405	3853
111	0	0	3573	1789	185	400	3854
112	0	0	2706	1789	183	400	3853
113	0	0	1950	1790	183	400	3854
114	0	0	1353	1791	182	404	3854
115	0	0	951	1794	181	405	3854
116	0	0	778	1794	179	405	3854
117	0	0	561	1795	180	406	3853
118	0	0	654	1799	181	405	3853
119	0	0	1091	1799	180	405	3853
120	0	0	1611	1800	181	406	3853
121	0	0	2173	1799	183	405	3854
122	0	0	2755	1798	183	405	3852
123	0	0	3247	1797	184	405	3852
124	0	0	3540	1796	184	405	3852
125	0	0	3712	1795	187	405	3852
126	0	0	3807	1794	187	405	3853
127	0	0	3860	1794	188	405	3854
0	0	0	3886	1793	187	406	3853
1	0	0	3898	1794	186	405	3853
2	0	0	3903	1795	186	406	3854
3	0	0	3735	1789	184	400	3855
4	0	0	2901	1789	183	404	3853
5	0	0	2177	1790	182	404	3853
6	0	0	1637	1791	181	404	3853
7	0	0	1260	1794	181	404	3853
8	0	0	1126	1794	179	405	3853
9	0	0	938	1795	181	405	3852
10	0	0	1007	1800	181	405	3852
11	0	0	1417	1800	181	404	3852
12	0	0	1893	1800	182	405	3853
13	0	0	2395	1799	181	404	3853
14	0	0	2945	1797	184	405	3853
15	0	0	3352	1798	184	405	3854
16	0	0	3588	1797	185	406	3853
17	0	0	3722	1795	186	406	3853
18	0	0	3799	1794	187	405	3854
19	0	0	3838	1793	187	405	3853
20	0	0	3857	1793	187	406	3853
21	0	0	3867	1793	187	405	3853
22	0	0	3869	1794	186	405	3854
23	0	0	3867	1794	185	404	3854
24	0	0	3278	1789	184	404	3853
25	0	0	2623	1790	183	404	3852
26	0	0	2112	1791	183	404	3853
27	0	0	1759	1794	181	405	3854
28	0	0	1640	1794	180	405	3853
29	0	0	1424	1796	180	405	3853
30	0	0	1452	1800	182	405	3852
31	0	0	1803	1800	180	405	3853
32	0	0	2232	1800	181	406	3853
33	0	0	2688	1799	182	405	3854
34	0	0	3157	1799	183	406	3853
35	0	0	3454	1797	184	405	3853
36	0	0	3628	1796	185	405	3853
37	0	0	3726	1795	186	405	3854
38	0	0	3777	1794	186	404	3854
39	0	0	3804	1793	188	405	3853
40	0	0	3817	1794	187	405	3854
41	0	0	3823	1794	188	406	3853
42	0	0	3823	1794	185	406	3853
43	0	0	3822	1795	186	405	3854
44	0	0	3483	1790	185	404	3853
45	0	0	2900	1790	182	404	3853
46	0	0	2458	1791	181	400	3853
47	0	0	2158	1795	182	405	3853
48	0	0	2060	1793	181	405	3853
49	0	0	1856	1794	180	405	3852
50	0	0	1851	1800	180	405	3853
51	0	0	2198	1800	180	405	3853
52	0	0	2609	1800	182	405	3854
53	0	0	3048	1799	182	405	3854
54	0	0	3375	1799	183	405	3854
55	0	0	3561	1798	185	405	3853
56	0	0	3663	1796	185	405	3853
57	0	0	3718	1795	186	405	3853
58	0	0	3746	1793	187	404	3853
59	0	0	3761	1794	187	406	3852
60	0	0	3765	1793	187	405	3852
61	0	0	3765	1794	188	405	3852
62	0	0	3765	1795	186	405	3853
63	0	0	3760	1795	186	405	3853
64	0	0	3757	1796	185	406	3853
65	0	0	3456	1791	183	400	3854
66	0	0	3060	1792	182	405	3853
67	0	0	2800	1798	181	405	3853
68	0	0	2735	1793	181	405	3854
69	0	0	2509	1795	181	405	3854
70	0	0	2487	1801	181	405	3853
71	0	0	2801	1800	180	405	3853
72	0	0	3152	1801	182	405	3854
73	0	0	3415	1799	181	404	3854
74	0	0	3555	1798	183	404	3853
75	0	0	3631	1797	184	405	3854
76	0	0	3671	1797	185	405	3853
77	0	0	3689	1796	186	406	3852
78	0	0	3696	1794	187	405	3853
79	0	0	3699	1793	187	405	3852
80	0	0	3697	1793	187	405	3852
81	0	0	3695	1794	187	405	3854
82	0	0	3694	1795	187	406	3854
83	0	0	3687	1795	184	405	3854
84	0	0	3684	1796	185	405	3853
85	0	0	3679	1797	184	405	3853
86	0	0	3574	1792	181	404	3853
87	0	0	3334	1800	181	405	3854
88	0	0	3316	1795	181	405	3854
89	0	0	3059	1794	181	405	3853
90	0	0	2981	1800	181	405	3852
91	0	0	3257	1800	181	405	3852
92	0	0	3443	1801	181	405	3853
93	0	0	3540	1799	181	404	3853
94	0	0	3588	1798	184	405	3853
95	0	0	3612	1798	184	405	3853
96	0	0	3621	1796	186	404	3852
97	0	0	3625	1795	186	405	3852
98	0	0	3625	1794	186	405	3853
99	0	0	3622	1794	188	405	3852
100	0	0	3619	1793	188	405	3853
101	0	0	3616	1794	187	405	3854
102	0	0	3613	1795	185	405	3854
103	0	0	3607	1795	185	404	3854
104	0	0	3604	1797	184	405	3855
105	0	0	3600	1797	184	405	3853
106	0	0	3596	1798	182	405	3853
107	0	0	3591	1800	181	405	3854
108	0	0	3586	1800	180	405	3853
109	0	0	3497	1794	180	405	3852
110	0	0	3357	1801	181	405	3852
111	0	0	3467	1800	181	405	3852
112	0	0	3519	1800	181	405	3853
113	0	0	3542	1799	181	404	3853
114	0	0	3551	1799	183	405	3854
115	0	0	3554	1798	185	405	3853
116	0	0	3552	1797	185	406	3853
117	0	0	3549	1795	187	405	3853
118	0	0	3545	1794	186	405	3853
119	0	0	3542	1794	187	405	3853
120	0	0	3538	1794	188	405	3853
121	0	0	3534	1793	187	404	3854
122	0	0	3531	1795	185	405	3853
123	0	0	3529	1796	185	405	3854
124	0	0	3523	1796	185	405	3852
125	0	0	3519	1798	184	405	3854
126	0	0	3516	1799	182	405	3854
127	0	0	3511	1799	181	405	3853
0	0	0	3507	1800	180	405	3853
1	0	0	3503	1800	180	405	3853
2	0	0	3499	1801	180	405	3852
3	0	0	3496	1800	181	405	3853
4	0	0	3492	1800	181	405	3853
5	0	0	3488	1799	182	405	3853
6	0	0	3486	1800	183	405	3854
7	0	0	3481	1799	185	405	3853
8	0	0	3477	1797	185	405	3854
9	0	0	3474	1796	186	405	3855
10	0	0	3468	1795	185	404	3853
11	0	0	3466	1795	187	400	3853
12	0	0	3461	1794	189	405	3853
13	0	0	3458	1794	186	404	3852
14	0	0	3455	1795	186	406	3852
15	0	0	3450	1796	185	405	3853
16	0	0	3447	1797	184	405	3852
17	0	0	3443	1798	183	405	3852
18	0	0	3439	1798	181	405	3852
19	0	0	3436	1800	182	406	3852
20	0	0	3432	1800	180	405	3853
21	0	0	3428	1801	181	405	3852
22	0	0	3424	1801	180	405	3854
23	0	0	3422	1801	180	405	3853
24	0	0	3418	1800	181	405	3853
25	0	0	3415	1800	181	405	3854
26	0	0	3410	1799	183	404	3853
27	0	0	3406	1798	184	405	3854
28	0	0	3405	1798	185	406	3853
29	0	0	3400	1796	186	406	3853
30	0	0	3398	1796	187	405	3854
31	0	0	3392	1795	187	405	3852
32	0	0	3389	1795	187	406	3852
33	0	0	3386	1795	187	405	3852
34	0	0	3383	1796	185	405	3852
35	0	0	3379	1796	183	405	3853
36	0	0	3375	1797	184	405	3852
37	0	0	3371	1798	183	406	3854
38	0	0	3368	1800	183	405	3853
39	0	0	3365	1800	181	406	3852
40	0	0	3360	1801	180	405	3853
41	0	0	3357	1801	181	404	3853
42	0	0	3354	1801	179	404	3853
43	0	0	3351	1801	181	404	3853
44	0	0	3348	1801	181	405	3853
45	0	0	3343	1800	181	405	3853
46	0	0	3341	1800	183	405	3854
47	0	0	3338	1800	184	405	3852
48	0	0	3334	1797	186	405	3853
49	0	0	3332	1797	186	406	3853
50	0	0	3326	1795	187	406	3853
51	0	0	3323	1795	187	405	3852
52	0	0	3320	1795	187	405	3852
53	0	0	3317	1795	186	405	3853
54	0	0	3312	1796	186	405	3853
55	0	0	3310	1796	185	405	3853
56	0	0	3306	1797	184	405	3853
57	0	0	3304	1799	183	405	3854
58	0	0	3302	1800	183	404	3853
59	0	0	3298	1801	180	405	3853
60	0	0	3293	1801	180	405	3854
61	0	0	3291	1802	180	405	3854
62	0	0	3288	1802	181	405	3853
63	0	0	3284	1802	181	404	3853
64	0	0	3280	1802	181	405	3852
65	0	0	3277	1801	182	405	3853
66	0	0	3274	1800	183	405	3853
67	0	0	3270	1799	185	405	3852
68	0	0	3268	1799	185	406	3852
69	0	0	3265	1798	187	405	3852
70	0	0	3261	1796	188	405	3853
71	0	0	3257	1796	187	405	3852
72	0	0	3256	1795	188	405	3853
73	0	0	3253	1795	186	405	3852
74	0	0	3248	1797	186	405	3853
75	0	0	3247	1798	185	405	3854
76	0	0	3242	1798	184	405	3853
77	0	0	3239	1800	182	406	3853
78	0	0	3237	1800	182	405	3853
79	0	0	3234	1801	181	406	3853
80	0	0	3230	1802	181	405	3853
81	0	0	3227	1802	180	405	3852
82	0	0	3224	1802	179	404	3853
83	0	0	3221	1803	181	405	3852
84	0	0	3219	1803	182	405	3854
85	0	0	3214	1801	182	405	3853
86	0	0	3211	1800	183	405	3852
87	0	0	3208	1799	183	405	3854
88	0	0	3206	1799	184	405	3853
89	0	0	3204	1797	186	405	3853
90	0	0	3199	1796	187	405	3853
91	0	0	3196	1795	187	404	3852
92	0	0	3194	1795	187	405	3854
93	0	0	3191	1796	188	405	3853
94	0	0	3188	1797	186	406	3854
95	0	0	3184	1797	185	406	3853
96	0	0	3182	1798	184	405	3852
97	0	0	3179	1799	183	405	3853
98	0	0	3176	1800	182	405	3853
99	0	0	3173	1801	182	405	3854
100	0	0	3169	1801	180	405	3853
101	0	0	3168	1803	180	405	3853
102	0	0	3164	1803	180	405	3852
103	0	0	3161	1803	182	405	3852
104	0	0	3159	1802	181	405	3853
105	0	0	3155	1801	182	405	3853
106	0	0	3152	1801	182	404	3853
107	0	0	3149	1799	184	405	3853
108	0	0	3147	1798	184	404	3853
109	0	0	3142	1798	186	405	3853
110	0	0	3142	1797	186	405	3854
111	0	0	3136	1796	187	405	3853
112	0	0	3135	1795	188	404	3854
113	0	0	3133	1796	188	405	3852
114	0	0	3129	1796	186	405	3853
115	0	0	3126	1797	185	405	3853
116	0	0	3123	1798	183	405	3853
117	0	0	3120	1799	182	404	3854
118	0	0	3119	1800	182	405	3853
119	0	0	3116	1801	180	406	3853
120	0	0	3112	1802	181	405	3853
121	0	0	3109	1802	181	405	3852
122	0	0	3108	1803	180	405	3852
123	0	0	3105	1801	180	405	3853
124	0	0	3102	1802	180	405	3854
125	0	0	3098	1801	181	404	3854
126	0	0	3097	1801	182	405	3854
127	0	0	3094	1799	184	405	3853
0	0	0	3090	1799	184	405	3853
1	0	0	3090	1797	185	405	3853
2	0	0	3084	1796	186	405	3853
3	0	0	3083	1797	187	405	3853
4	0	0	3080	1795	187	405	3852
5	0	0	3078	1796	186	405	3853
6	0	0	3075	1798	185	405	3854
7	0	0	3070	1797	184	405	3853
8	0	0	3068	1799	183	405	3854
9	0	0	3066	1800	181	405	3852
10	0	0	3063	1801	181	405	3852
11	0	0	3060	1802	179	405	3853
12	0	0	3058	1804	179	405	3854
13	0	0	3055	1804	179	405	3853
14	0	0	3051	1804	178	405	3854
15	0	0	3049	1805	161	410	3855
16	0	0	3028	2279	115	401	3854
17	0	0	1194	2292	116	400	3854
18	0	0	277	2298	118	399	3852
19	0	0	0	2298	121	400	3852
20	0	0	0	2296	123	399	3853
21	0	0	549	2297	129	399	3852
22	0	0	1601	2289	132	400	3853
23	0	0	2209	2284	134	400	3852
24	0	0	2575	2277	138	401	3852
25	0	0	2790	2272	138	401	3853
26	0	0	2917	2267	141	402	3853
27	0	0	2986	2262	141	400	3853
28	0	0	3024	2256	141	400	3853
29	0	0	3044	2252	143	400	3854
30	0	0	3055	2247	143	401	3853
31	0	0	3057	2241	145	400	3853
32	0	0	2454	2228	146	401	3853
33	0	0	1425	2222	147	401	3854
34	0	0	709	2216	148	401	3852
35	0	0	430	2209	150	401	3853
36	0	0	396	2206	152	402	3853
37	0	0	539	2197	155	401	3853
38	0	0	841	2189	157	401	3852
39	0	0	1238	2180	160	401	3852
40	0	0	1550	2171	163	401	3852
41	0	0	1450	2155	166	402	3853
42	0	0	1239	2152	169	402	3853
43	0	0	1404	2141	169	401	3852
44	0	0	959	2131	169	401	3852
45	0	0	167	2125	171	400	3853
46	0	0	0	2120	171	402	3854
47	0	0	0	2116	171	401	3854
48	0	0	0	2111	169	401	3853
49	0	0	0	2107	170	401	3853
50	0	0	0	2104	169	402	3853
51	0	0	0	2099	169	401	3852
52	0	0	0	2094	170	402	3853
53	0	0	0	2091	170	402	3852
54	0	0	0	2086	171	401	3853
55	0	0	0	2081	171	402	3853
56	0	0	0	2074	173	402	3852
57	0	0	0	2069	174	402	3853
58	0	0	0	2061	176	402	3852
59	0	0	0	2055	178	402	3854
60	0	0	0	2049	180	402	3853
61	0	0	0	2039	181	403	3853
62	0	0	0	2035	184	403	3854
63	0	0	0	2027	183	403	3853
64	0	0	0	2022	185	402	3854
65	0	0	0	2018	185	404	3853
66	0	0	0	2013	184	403	3853
67	0	0	0	2010	183	404	3853
68	0	0	0	2008	184	403	3853
69	0	0	0	2004	182	403	3852
70	0	0	0	2001	181	404	3852
71	0	0	0	1999	181	403	3852
72	0	0	0	1996	180	403	3853
73	0	0	0	1993	180	403	3852
74	0	0	0	1990	180	403	3852
75	0	0	0	1987	180	403	3852
76	0	0	0	1983	183	403	3852
77	0	0	0	1978	183	404	3853
78	0	0	0	1973	185	404	3854
79	0	0	0	1967	186	405	3853
80	0	0	0	1961	188	404	3853
81	0	0	0	1954	190	404	3853
82	0	0	0	1949	191	404	3854
83	0	0	0	1943	193	404	3852
84	0	0	0	1939	191	404	3852
85	0	0	0	1937	192	404	3852
86	0	0	0	1934	198	404	3852
87	0	0	0	1935	202	404	3853
88	0	0	0	1932	203	404	3853
89	0	0	305	1924	203	404	3852
90	0	0	21	1923	205	404	3852
91	0	0	0	1921	204	404	3852
92	0	0	0	1920	205	404	3852
93	0	0	0	1918	205	404	3852
94	0	0	0	1916	205	403	3852
95	0	0	0	1914	205	404	3852
96	0	0	0	1912	205	404	3854
97	0	0	0	1908	205	403	3853
98	0	0	0	1905	205	404	3853
99	0	0	0	1901	204	404	3853
100	0	0	0	1898	204	405	3852
101	0	0	0	1896	204	404	3852
102	0	0	0	1893	203	404	3853
103	0	0	0	1891	203	404	3852
104	0	0	0	1889	203	404	3852
105	0	0	0	1888	203	404	3852
106	0	0	0	1888	203	404	3852
107	0	0	0	1888	201	403	3853
108	0	0	0	1887	202	404	3852
109	0	0	0	1887	202	404	3852
110	0	0	0	1888	201	404	3852
111	0	0	0	1888	200	404	3852
112	0	0	0	1888	200	404	3853
113	0	0	0	1887	200	404	3852
114	0	0	0	1887	200	404	3853
115	0	0	0	1887	200	404	3853
116	0	0	0	1885	198	404	3854
117	0	0	0	1884	198	404	3854
118	0	0	0	1882	198	404	3852
119	0	0	0	1880	197	404	3853
120	0	0	0	1880	199	404	3853
121	0	0	0	1877	196	404	3853
122	0	0	0	1877	197	404	3853
123	0	0	0	1874	196	404	3852
124	0	0	0	1874	195	404	3853
125	0	0	0	1874	196	404	3853
126	0	0	0	1874	196	404	3853
127	0	0	0	1874	197	404	3853
0	0	0	0	1874	195	404	3853
1	0	0	0	1875	195	404	3853
2	0	0	0	1876	195	404	3853
3	0	0	0	1876	194	404	3853
4	0	0	0	1876	195	403	3853
5	0	0	0	1877	194	404	3852
6	0	0	0	1876	194	404	3852
7	0	0	0	1875	193	405	3852
8	0	0	6	1875	194	405	3852
9	0	0	12	1874	193	403	3852
10	0	0	18	1874	193	404	3853
11	0	0	24	1873	191	404	3852
12	0	0	30	1872	193	404	3852
13	0	0	35	1871	193	404	3853
14	0	0	41	1869	191	404	3853
15	0	0	46	1868	191	404	3852
16	0	0	52	1868	191	404	3854
17	0	0	58	1868	193	404	3854
18	0	0	63	1868	191	405	3854
19	0	0	68	1868	191	404	3854
20	0	0	76	1868	191	404	3853
21	0	0	81	1868	191	404	3853
22	0	0	87	1870	191	404	3852
23	0	0	91	1870	191	405	3852
24	0	0	98	1870	191	404	3853
25	0	0	104	1871	191	404	3852
26	0	0	109	1870	190	404	3852
27	0	0	114	1871	190	404	3852
28	0	0	120	1870	189	404	3852
29	0	0	125	1869	188	403	3852
30	0	0	131	1869	189	405	3853
31	0	0	137	1867	189	405	3852
32	0	0	142	1867	190	404	3852
33	0	0	146	1866	189	405	3853
34	0	0	153	1864	188	404	3853
35	0	0	159	1865	189	405	3854
36	0	0	164	1864	188	405	3853
37	0	0	169	1863	188	405	3853
38	0	0	173	1864	189	405	3853
39	0	0	180	1864	189	404	3853
40	0	0	185	1865	189	404	3853
41	0	0	190	1864	188	404	3852
42	0	0	195	1865	189	404	3852
43	0	0	201	1865	189	405	3852
44	0	0	206	1865	187	404	3852
45	0	0	211	1865	188	404	3852
46	0	0	216	1864	187	404	3853
47	0	0	222	1864	188	405	3853
48	0	0	227	1862	187	405	3852
49	0	0	232	1861	187	405	3854
50	0	0	237	1860	188	404	3852
51	0	0	243	1858	188	404	3853
52	0	0	247	1857	187	404	3853
53	0	0	252	1856	187	405	3853
54	0	0	257	1854	186	404	3853
55	0	0	263	1853	188	404	3852
56	0	0	267	1852	187	404	3852
57	0	0	272	1852	188	404	3852
58	0	0	277	1851	186	404	3853
59	0	0	282	1849	187	404	3853
60	0	0	287	1849	187	404	3853
61	0	0	292	1847	185	405	3852
62	0	0	297	1846	186	404	3852
63	0	0	301	1845	186	404	3852
64	0	0	307	1844	187	404	3852
65	0	0	311	1844	187	404	3852
66	0	0	317	1842	185	405	3852
67	0	0	321	1842	187	405	3852
68	0	0	325	1841	186	404	3852
69	0	0	331	1840	186	404	3853
70	0	0	336	1839	187	404	3853
71	0	0	340	1838	185	404	3854
72	0	0	345	1839	186	405	3853
73	0	0	349	1837	186	405	3852
74	0	0	354	1836	187	404	3852
75	0	0	359	1835	185	404	3853
76	0	0	364	1835	186	404	3852
77	0	0	368	1834	187	404	3852
78	0	0	372	1833	186	405	3852
79	0	0	377	1832	186	404	3852
80	0	0	382	1831	186	405	3852
81	0	0	387	1831	186	405	3852
82	0	0	391	1830	186	405	3852
83	0	0	395	1830	186	405	3852
84	0	0	400	1829	186	405	3854
85	0	0	405	1828	186	405	3852
86	0	0	409	1828	186	405	3854
87	0	0	415	1828	186	404	3854
88	0	0	418	1826	185	404	3853
89	0	0	423	1826	185	403	3853
90	0	0	428	1825	186	405	3852
91	0	0	431	1825	185	405	3853
92	0	0	436	1825	185	405	3852
93	0	0	440	1825	185	404	3852
94	0	0	445	1823	185	404	3852
95	0	0	449	1823	185	405	3852
96	0	0	454	1823	185	405	3852
97	0	0	458	1822	186	405	3853
98	0	0	462	1822	184	405	3853
99	0	0	466	1820	185	403	3853
100	0	0	471	1822	185	405	3854
101	0	0	476	1821	184	405	3852
102	0	0	479	1820	186	405	3852
103	0	0	484	1820	185	405	3853
104	0	0	488	1819	185	404	3853
105	0	0	492	1819	185	404	3852
106	0	0	497	1818	186	404	3852
107	0	0	501	1818	185	404	3852
108	0	0	504	1818	185	405	3852
109	0	0	509	1817	185	405	3852
110	0	0	513	1818	185	405	3852
111	0	0	518	1816	184	405	3852
112	0	0	522	1816	185	405	3852
113	0	0	525	1816	185	405	3852
114	0	0	530	1816	184	405	3852
115	0	0	534	1816	184	405	3852
116	0	0	539	1815	185	404	3852
117	0	0	542	1816	185	405	3852
118	0	0	547	1816	185	405	3854
119	0	0	551	1815	184	404	3853
120	0	0	555	1815	185	405	3854
121	0	0	559	1815	185	405	3852
122	0	0	563	1814	186	404	3853
123	0	0	567	1815	185	404	3853
124	0	0	571	1813	185	403	3852
125	0	0	575	1813	184	404	3852
126	0	0	579	1813	186	405	3852
127	0	0	583	1813	185	405	3852
0	0	0	587	1812	184	405	3852
1	0	0	590	1812	185	405	3852
2	0	0	594	1812	184	405	3852
3	0	0	598	1812	184	405	3852
4	0	0	603	1812	184	405	3852
5	0	0	606	1811	185	405	3852
6	0	0	610	1812	185	403	3853
7	0	0	614	1811	184	405	3852
8	0	0	617	1812	185	404	3852
9	0	0	622	1812	184	405	3852
10	0	0	626	1811	185	405	3853
11	0	0	629	1812	184	405	3853
12	0	0	634	1810	184	404	3852
13	0	0	637	1811	184	404	3853
14	0	0	641	1811	185	405	3852
15	0	0	645	1811	184	405	3851
16	0	0	648	1811	184	404	3853
17	0	0	652	1810	184	405	3852
18	0	0	656	1809	184	405	3853
19	0	0	660	1810	184	405	3852
20	0	0	663	1810	185	405	3852
21	0	0	667	1809	184	404	3853
22	0	0	670	1809	184	405	3852
23	0	0	674	1809	184	404	3853
24	0	0	678	1810	184	405	3852
25	0	0	682	1809	185	405	3853
26	0	0	686	1809	183	404	3853
27	0	0	689	1809	184	405	3852
28	0	0	693	1809	184	405	3852
29	0	0	696	1809	183	405	3852
30	0	0	700	1809	185	405	3853
31	0	0	703	1809	184	404	3852
32	0	0	707	1809	185	405	3852
33	0	0	711	1808	184	406	3852
34	0	0	715	1808	184	405	3852
35	0	0	718	1809	184	405	3851
36	0	0	721	1808	184	404	3852
37	0	0	725	1808	184	405	3852
38	0	0	728	1807	184	405	3853
39	0	0	732	1808	184	405	3853
40	0	0	736	1808	186	405	3852
41	0	0	838	1811	184	404	3853
42	0	0	929	1811	185	405	3854
43	0	0	1000	1811	185	405	3852
44	0	0	1085	1811	184	404	3852
45	0	0	1161	1811	184	405	3852
46	0	0	1273	1810	184	404	3852
47	0	0	1437	1810	184	405	3852
48	0	0	1559	1810	184	405	3847
49	0	0	1593	1810	184	405	3852
50	0	0	1562	1806	184	405	3852
51	0	0	1426	1804	185	405	3852
52	0	0	1211	1804	185	405	3852
53	0	0	1002	1805	186	405	3852
54	0	0	890	1805	184	405	3852
55	0	0	834	1806	185	405	3852
56	0	0	807	1806	185	404	3852
57	0	0	795	1806	184	405	3853
58	0	0	790	1806	184	405	3852
59	0	0	789	1806	183	405	3852
60	0	0	790	1806	184	404	3852
61	0	0	792	1806	185	405	3853
62	0	0	795	1807	185	405	3853
63	0	0	798	1806	184	405	3852
64	0	0	801	1806	184	405	3852
65	0	0	804	1806	184	405	3853
66	0	0	808	1807	185	405	3852
67	0	0	810	1805	185	405	3851
68	0	0	814	1806	183	405	3853
69	0	0	818	1806	184	405	3852
70	0	0	820	1806	184	405	3852
71	0	0	824	1806	185	404	3853
72	0	0	827	1806	185	405	3852
73	0	0	830	1805	184	405	3854
74	0	0	833	1805	183	405	3852
75	0	0	837	1805	185	405	3852
76	0	0	839	1805	185	405	3853
77	0	0	843	1805	185	404	3852
78	0	0	847	1804	185	405	3852
79	0	0	849	1805	184	405	3852
80	0	0	853	1806	184	406	3853
81	0	0	855	1805	184	404	3852
82	0	0	859	1804	184	405	3852
83	0	0	862	1805	184	406	3852
84	0	0	865	1805	185	405	3852
85	0	0	868	1805	185	405	3852
86	0	0	872	1805	185	405	3853
87	0	0	876	1805	183	405	3852
88	0	0	878	1805	184	405	3852
89	0	0	880	1805	185	405	3852
90	0	0	885	1805	184	405	3853
91	0	0	887	1804	184	405	3853
92	0	0	890	1805	184	404	3852
93	0	0	894	1804	184	405	3852
94	0	0	897	1805	185	405	3853
95	0	0	899	1804	185	405	3852
96	0	0	902	1804	183	405	3852
97	0	0	905	1803	183	405	3851
98	0	0	909	1804	184	405	3852
99	0	0	912	1805	185	406	3853
100	0	0	915	1805	185	405	3852
101	0	0	918	1804	184	405	3853
102	0	0	921	1804	183	404	3852
103	0	0	924	1804	184	405	3853
104	0	0	926	1805	184	405	3852
105	0	0	930	1804	184	405	3852
106	0	0	932	1804	184	405	3852
107	0	0	936	1804	184	405	3852
108	0	0	939	1805	183	404	3852
109	0	0	941	1805	185	404	3852
110	0	0	945	1805	184	405	3853
111	0	0	948	1804	183	405	3853
112	0	0	950	1804	185	405	3852
113	0	0	953	1805	184	405	3852
114	0	0	956	1805	184	405	3852
115	0	0	959	1803	184	405	3851
116	0	0	962	1804	185	405	3853
117	0	0	965	1804	184	405	3851
118	0	0	968	1803	185	405	3852
119	0	0	971	1805	184	405	3853
120	0	0	973	1804	184	405	3852
121	0	0	976	1804	184	405	3853
122	0	0	979	1805	184	405	3852
123	0	0	982	1804	183	405	3853
124	0	0	985	1805	184	405	3853
125	0	0	988	1804	185	405	3852
126	0	0	991	1805	184	405	3853
127	0	0	994	1804	183	405	3852
0	0	0	996	1804	184	405	3853
1	0	0	999	1805	184	406	3852
2	0	0	1002	1804	184	405	3853
3	0	0	1004	1805	185	405	3852
4	0	0	1007	1804	184	405	3852
5	0	0	1010	1805	185	405	3852
6	0	0	1013	1805	184	405	3852
7	0	0	1016	1805	184	405	3853
8	0	0	1018	1804	184	405	3852
9	0	0	1021	1803	183	404	3852
10	0	0	1025	1805	184	404	3852
11	0	0	1028	1805	183	405	3852
12	0	0	1030	1805	184	405	3852
13	0	0	1033	1805	185	405	3853
14	0	0	1036	1806	184	405	3852
15	0	0	1038	1805	184	405	3853
16	0	0	1042	1806	184	405	3853
17	0	0	1043	1806	185	405	3852
18	0	0	1047	1806	184	405	3852
19	0	0	1049	1805	185	405	3851
20	0	0	1052	1805	184	405	3853
21	0	0	1055	1806	184	405	3852
22	0	0	1057	1805	184	404	3852
23	0	0	1060	1806	184	405	3852
24	0	0	1063	1806	184	405	3852
25	0	0	1065	1806	184	405	3852
26	0	0	1068	1807	184	405	3852
27	0	0	1070	1806	185	405	3852
28	0	0	1073	1805	184	405	3852
29	0	0	1075	1806	183	404	3853
30	0	0	1078	1806	185	405	3852
31	0	0	1081	1806	184	405	3852
32	0	0	1083	1806	184	405	3853
33	0	0	1086	1806	184	405	3852
34	0	0	1089	1806	183	405	3852
35	0	0	1091	1807	184	405	3851
36	0	0	1094	1806	183	405	3852
37	0	0	1096	1807	185	405	3851
38	0	0	1099	1807	184	404	3851
39	0	0	1102	1806	184	405	3851
40	0	0	1104	1810	184	405	3851
41	0	0	1173	1811	185	405	3852
42	0	0	1213	1811	184	405	3852
43	0	0	1225	1808	185	405	3853
44	0	0	1227	1808	185	405	3852
45	0	0	1228	1807	185	404	3853
46	0	0	1242	1811	185	405	3853
47	0	0	1270	1810	184	405	3853
48	0	0	1289	1810	184	405	3852
49	0	0	1310	1808	184	405	3852
50	0	0	1329	1810	183	405	3852
51	0	0	1369	1810	184	404	3852
52	0	0	1422	1812	184	405	3851
53	0	0	1470	1810	183	405	3852
54	0	0	1512	1811	183	404	3851
55	0	0	1562	1811	183	405	3851
56	0	0	1618	1811	183	404	3852
57	0	0	1673	1811	184	405	3851
58	0	0	1707	1812	185	405	3852
59	0	0	1763	1811	184	404	3851
60	0	0	1833	1812	183	405	3851
61	0	0	1898	1812	185	405	3852
62	0	0	1972	1812	185	405	3853
63	0	0	2026	1811	184	405	3852
64	0	0	2067	1812	183	405	3853
65	0	0	2111	1812	183	405	3852
66	0	0	2168	1813	184	405	3852
67	0	0	2238	1813	183	404	3853
68	0	0	2310	1812	184	405	3852
69	0	0	2376	1813	185	405	3852
70	0	0	2452	1813	183	404	3851
71	0	0	2544	1812	181	405	3852
72	0	0	2653	1813	184	405	3853
73	0	0	2786	1813	184	404	3852
74	0	0	2951	1813	185	405	3853
75	0	0	3122	1813	184	405	3852
76	0	0	3110	1809	183	405	3852
77	0	0	2986	1809	183	404	3852
78	0	0	2889	1811	183	405	3852
79	0	0	2881	1814	183	405	3852
80	0	0	2924	1815	183	405	3852
81	0	0	2988	1814	182	405	3852
82	0	0	3083	1814	184	405	3852
83	0	0	3178	1814	183	404	3853
84	0	0	3290	1815	183	405	3852
85	0	0	3435	1815	184	405	3852
86	0	0	3594	1814	183	405	3852
87	0	0	3748	1814	184	405	3852
88	0	0	3859	1814	184	404	3852
89	0	0	3934	1815	183	404	3852
90	0	0	3955	1815	185	404	3851
91	0	0	3962	1815	184	404	3852
92	0	0	3961	1815	183	405	3852
93	0	0	3944	1816	183	405	3853
94	0	0	3899	1813	183	405	3852
95	0	0	3843	1812	184	404	3852
96	0	0	3779	1813	184	405	3852
97	0	0	3735	1812	183	405	3853
98	0	0	3692	1815	184	405	3852
99	0	0	3716	1816	185	406	3852
100	0	0	3748	1816	184	405	3852
101	0	0	3741	1817	184	404	3852
102	0	0	3692	1812	183	404	3852
103	0	0	3620	1812	184	405	3852
104	0	0	3589	1817	184	405	3852
105	0	0	3556	1813	185	405	3852
106	0	0	3448	1813	184	404	3853
107	0	0	3281	1812	184	404	3852
108	0	0	3152	1813	185	405	3852
109	0	0	3055	1813	184	404	3852
110	0	0	2987	1813	183	405	3851
111	0	0	2933	1814	184	404	3852
112	0	0	2887	1814	184	405	3852
113	0	0	2869	1813	184	404	3853
114	0	0	2755	1813	183	405	3854
115	0	0	2652	1815	185	405	3852
116	0	0	2711	1819	184	405	3852
117	0	0	2806	1818	184	405	3852
118	0	0	2867	1818	184	404	3852
119	0	0	3021	1819	184	405	3851
120	0	0	3189	1819	183	404	3852
121	0	0	3351	1820	183	405	3852
122	0	0	3498	1814	183	405	3852
123	0	0	3253	1813	183	405	3852
124	0	0	2865	1813	184	404	3852
125	0	0	2595	1814	183	404	3853
126	0	0	2616	1820	185	405	3852
127	0	0	2818	1820	185	405	3853
0	0	0	2873	1817	184	404	3852
1	0	0	2835	1819	185	404	3852
2	0	0	2855	1819	183	404	3852
3	0	0	2828	1819	183	404	3852
4	0	0	2810	1817	183	405	3853
5	0	0	2732	1815	183	405	3852
6	0	0	2642	1816	184	405	3852
7	0	0	2587	1817	184	404	3852
8	0	0	2549	1818	184	405	3853
9	0	0	2531	1818	183	404	3852
10	0	0	2505	1819	185	405	3852
11	0	0	2511	1821	183	405	3851
12	0	0	2539	1821	183	405	3852
13	0	0	2545	1822	184	405	3852
14	0	0	2553	1821	183	405	3852
15	0	0	2544	1821	183	404	3852
16	0	0	2521	1819	183	405	3852
17	0	0	2502	1821	183	405	3852
18	0	0	2502	1823	185	404	3852
19	0	0	2524	1823	184	405	3854
20	0	0	2580	1823	184	404	3853
21	0	0	2674	1822	183	404	3852
22	0	0	2824	1823	184	404	3852
23	0	0	2982	1823	183	405	3853
24	0	0	3101	1822	184	405	3852
25	0	0	3195	1823	184	404	3852
26	0	0	3249	1823	183	404	3852
27	0	0	3312	1823	184	404	3852
28	0	0	3366	1824	184	404	3852
29	0	0	3404	1822	184	405	3851
30	0	0	3463	1823	184	405	3852
31	0	0	3576	1824	184	404	3852
32	0	0	3727	1824	184	405	3852
33	0	0	3911	1825	183	404	3852
34	0	0	4091	1825	183	405	3852
35	0	0	4091	1824	183	405	3853
36	0	0	4091	1825	184	405	3854
37	0	0	4094	1826	185	405	3852
38	0	0	4092	1826	184	405	3852
39	0	0	4093	1826	184	404	3853
40	0	0	4091	1822	184	405	3851
41	0	0	4091	1818	184	404	3851
42	0	0	2831	1820	182	404	3851
43	0	0	1923	1820	183	404	3851
44	0	0	1404	1821	182	404	3852
45	0	0	1102	1833	184	404	3852
46	0	0	2371	1826	183	405	3851
47	0	0	3348	1825	185	404	3853
48	0	0	3914	1825	186	404	3852
49	0	0	4091	1822	187	404	3852
50	0	0	4091	1820	188	405	3852
51	0	0	4092	1821	188	406	3852
52	0	0	4092	1819	189	405	3852
53	0	0	4092	1820	188	405	3852
54	0	0	4091	1814	186	404	3852
55	0	0	2949	1816	185	405	3852
56	0	0	1973	1818	183	404	3852
57	0	0	1408	1821	181	404	3851
58	0	0	1076	1824	179	404	3851
59	0	0	886	1826	179	405	3852
60	0	0	782	1829	177	405	3852
61	0	0	727	1831	176	404	3851
62	0	0	698	1832	176	404	3852
63	0	0	685	1835	175	405	3853
64	0	0	679	1836	177	405	3852
65	0	0	677	1836	176	404	3852
66	0	0	678	1835	178	404	3852
67	0	0	1928	1833	179	404	3852
68	0	0	3059	1832	181	404	3848
69	0	0	3731	1830	181	405	3852
70	0	0	4091	1827	185	405	3852
71	0	0	4091	1828	185	405	3853
72	0	0	4092	1827	185	406	3852
73	0	0	4092	1826	185	404	3852
74	0	0	4092	1821	184	404	3852
75	0	0	2631	1822	181	404	3852
76	0	0	1779	1825	179	406	3852
77	0	0	1292	1828	177	405	3851
78	0	0	1007	1831	177	404	3851
79	0	0	845	1833	173	404	3852
80	0	0	756	1836	173	405	3852
81	0	0	709	1839	170	405	3852
82	0	0	686	1841	171	404	3852
83	0	0	674	1842	170	404	3852
84	0	0	671	1843	170	404	3852
85	0	0	671	1844	171	404	3852
86	0	0	672	1843	173	404	3852
87	0	0	675	1842	175	404	3853
88	0	0	1709	1841	175	405	3853
89	0	0	2843	1839	177	404	3852
90	0	0	3602	1837	180	404	3852
91	0	0	4049	1835	181	404	3851
92	0	0	4091	1834	181	404	3851
93	0	0	3168	1827	181	404	3851
94	0	0	2083	1828	177	405	3852
95	0	0	1475	1831	177	404	3851
96	0	0	1122	1833	175	404	3851
97	0	0	918	1836	174	404	3852
98	0	0	805	1839	173	405	3852
99	0	0	746	1842	171	405	3853
100	0	0	714	1843	170	405	3852
101	0	0	699	1845	169	404	3852
102	0	0	694	1846	169	404	3852
103	0	0	692	1848	169	404	3852
104	0	0	694	1848	170	404	3853
105	0	0	696	1848	172	404	3852
106	0	0	698	1846	173	404	3852
107	0	0	702	1844	174	404	3852
108	0	0	862	1843	175	404	3851
109	0	0	1911	1841	178	404	3852
110	0	0	3032	1837	180	405	3851
111	0	0	3721	1836	181	405	3852
112	0	0	4092	1825	182	405	3852
113	0	0	2993	1826	181	404	3851
114	0	0	2006	1827	180	404	3852
115	0	0	1445	1830	179	404	3853
116	0	0	1117	1831	177	405	3852
117	0	0	932	1833	175	405	3853
118	0	0	831	1835	173	405	3853
119	0	0	776	1837	172	404	3852
120	0	0	748	1839	172	404	3852
121	0	0	735	1841	171	404	3852
122	0	0	730	1842	172	404	3851
123	0	0	729	1843	172	404	3851
124	0	0	731	1844	174	404	3852
125	0	0	733	1843	173	404	3852
126	0	0	736	1841	175	405	3851
127	0	0	739	1839	177	404	3851
0	0	0	741	1835	178	405	3851
1	0	0	948	1834	180	405	3851
2	0	0	2146	1831	183	404	3851
3	0	0	3099	1829	185	403	3852
4	0	0	2540	1820	184	404	3852
5	0	0	1744	1820	185	405	3852
6	0	0	1303	1822	184	405	3853
7	0	0	1056	1822	182	405	3852
8	0	0	920	1824	182	405	3854
9	0	0	847	1827	181	404	3852
10	0	0	809	1828	178	404	3852
11	0	0	790	1831	176	404	3852
12	0	0	782	1833	176	404	3852
13	0	0	780	1836	175	405	3852
14	0	0	782	1838	175	404	3851
15	0	0	783	1839	174	404	3852
16	0	0	785	1838	176	404	3852
17	0	0	788	1838	176	405	3852
18	0	0	981	1836	179	404	3851
19	0	0	2468	1835	180	404	3860
20	0	0	3428	1834	181	405	3852
21	0	0	3988	1831	184	404	3852
22	0	0	4092	1829	186	404	3853
23	0	0	4091	1826	187	404	3852
24	0	0	4091	1826	187	405	3852
25	0	0	4092	1825	189	405	3852
26	0	0	4090	1819	186	405	3852
27	0	0	2562	1821	185	405	3852
28	0	0	1784	1824	183	404	3852
29	0	0	1327	1826	182	404	3852
30	0	0	1065	1828	179	405	3852
31	0	0	912	1831	178	405	3851
32	0	0	831	1834	177	404	3851
33	0	0	788	1836	176	404	3851
34	0	0	767	1838	176	404	3852
35	0	0	757	1840	176	405	3852
36	0	0	754	1840	177	404	3852
37	0	0	754	1841	178	404	3853
38	0	0	755	1838	179	404	3852
39	0	0	1514	1838	182	404	3852
40	0	0	2813	1836	183	405	3852
41	0	0	3607	1833	184	405	3852
42	0	0	4087	1831	187	404	3852
43	0	0	4091	1829	188	404	3852
44	0	0	4091	1828	190	404	3852
45	0	0	4092	1828	189	404	3852
46	0	0	3432	1822	186	405	3853
47	0	0	2272	1824	186	405	3852
48	0	0	1612	1827	184	405	3852
49	0	0	1226	1829	182	404	3852
50	0	0	1000	1832	183	405	3851
51	0	0	877	1834	180	405	3852
52	0	0	809	1837	178	404	3852
53	0	0	774	1839	177	404	3852
54	0	0	756	1841	177	404	3852
55	0	0	749	1842	178	404	3852
56	0	0	748	1843	178	404	3852
57	0	0	748	1843	179	404	3852
58	0	0	750	1841	181	404	3852
59	0	0	805	1839	182	404	3853
60	0	0	1987	1839	185	404	3853
61	0	0	3109	1835	186	404	3852
62	0	0	3785	1833	189	405	3852
63	0	0	4091	1831	189	405	3851
64	0	0	4091	1830	190	404	3851
65	0	0	4092	1830	191	405	3851
66	0	0	3340	1822	188	404	3852
67	0	0	2224	1824	187	405	3852
68	0	0	1580	1827	186	405	3852
69	0	0	1210	1828	184	405	3852
70	0	0	996	1832	182	404	3852
71	0	0	877	1835	181	405	3853
72	0	0	812	1837	181	404	3852
73	0	0	779	1838	180	404	3853
74	0	0	764	1840	179	404	3852
75	0	0	756	1840	179	404	3852
76	0	0	754	1840	180	404	3853
77	0	0	756	1841	181	404	3853
78	0	0	865	1839	182	404	3852
79	0	0	2344	1838	184	404	3852
80	0	0	3331	1835	187	405	3852
81	0	0	3917	1831	189	405	3852
82	0	0	4091	1829	192	404	3852
83	0	0	4091	1827	191	404	3851
84	0	0	4091	1825	193	405	3852
85	0	0	4093	1825	193	404	3852
86	0	0	3489	1817	192	405	3852
87	0	0	2300	1819	191	405	3852
88	0	0	1625	1821	190	405	3853
89	0	0	1226	1823	188	403	3852
90	0	0	999	1826	186	404	3852
91	0	0	872	1827	185	405	3852
92	0	0	802	1829	183	404	3852
93	0	0	766	1831	183	404	3852
94	0	0	749	1832	184	405	3852
95	0	0	741	1833	183	405	3853
96	0	0	739	1832	183	404	3852
97	0	0	740	1832	184	405	3852
98	0	0	1356	1830	186	405	3853
99	0	0	2761	1828	188	405	3852
100	0	0	3579	1826	191	404	3852
101	0	0	4062	1822	193	404	3852
102	0	0	4091	1818	194	404	3852
103	0	0	4091	1817	196	404	3852
104	0	0	4091	1815	197	404	3852
105	0	0	4092	1814	199	405	3852
106	0	0	4091	1807	196	405	3852
107	0	0	2715	1808	195	405	3854
108	0	0	1853	1810	194	404	3852
109	0	0	1351	1812	191	405	3852
110	0	0	1059	1814	190	405	3852
111	0	0	890	1816	188	405	3852
112	0	0	799	1817	186	405	3852
113	0	0	751	1818	185	405	3852
114	0	0	726	1818	186	405	3851
115	0	0	715	1820	186	404	3852
116	0	0	712	1820	185	405	3852
117	0	0	1323	1819	187	405	3851
118	0	0	2730	1817	188	405	3852
119	0	0	3538	1814	190	404	3852
120	0	0	4023	1811	192	404	3852
121	0	0	4092	1808	194	404	3853
122	0	0	4091	1805	197	405	3852
123	0	0	4092	1803	198	405	3853
124	0	0	4093	1802	199	404	3852
125	0	0	4092	1801	198	404	3853
126	0	0	4093	1801	195	405	3853
127	0	0	3706	1794	194	405	3852
0	0	0	2382	1796	193	405	3852
1	0	0	1634	1798	191	405	3852
2	0	0	1204	1800	189	405	3852
3	0	0	953	1802	187	405	3852
4	0	0	813	1806	186	405	3852
5	0	0	735	1806	185	405	3852
6	0	0	694	1809	185	405	3851
7	0	0	675	1808	184	405	3852
8	0	0	665	1808	184	403	3852
9	0	0	1696	1808	186	405	3852
10	0	0	2919	1807	187	404	3852
11	0	0	3630	1805	188	405	3853
12	0	0	4063	1804	191	405	3852
13	0	0	4091	1801	192	405	3853
14	0	0	4093	1798	194	405	3853
15	0	0	4094	1796	196	404	3852
16	0	0	4092	1795	195	405	3853
17	0	0	4093	1795	196	405	3853
18	0	0	4091	1795	194	405	3852
19	0	0	4091	1789	194	404	3851
20	0	0	2987	1791	191	404	3851
21	0	0	1972	1794	190	405	3852
22	0	0	1384	1797	187	405	3852
23	0	0	1037	1800	185	405	3852
24	0	0	839	1803	184	405	3852
25	0	0	731	1806	183	405	3853
26	0	0	672	1808	182	405	3852
27	0	0	641	1809	183	404	3852
28	0	0	1750	1812	183	405	3853
29	0	0	2924	1812	184	405	3853
30	0	0	3620	1810	185	405	3852
31	0	0	4033	1809	187	405	3853
32	0	0	4092	1807	189	405	3852
33	0	0	4091	1805	191	405	3852
34	0	0	4091	1802	194	405	3851
35	0	0	4091	1801	194	405	3851
36	0	0	4091	1800	196	405	3852
37	0	0	4092	1800	194	404	3852
38	0	0	4091	1800	192	405	3852
39	0	0	4091	1795	191	405	3852
40	0	0	2622	1798	189	405	3852
41	0	0	1734	1799	188	405	3852
42	0	0	1224	1803	186	405	3852
43	0	0	926	1807	185	405	3853
44	0	0	756	1810	182	404	3852
45	0	0	662	1813	181	405	3853
46	0	0	612	1815	183	404	3852
47	0	0	588	1816	182	404	3853
48	0	0	576	1817	183	405	3854
49	0	0	1350	1819	182	405	3852
50	0	0	2670	1818	186	405	3852
51	0	0	3445	1817	186	405	3851
52	0	0	3916	1815	188	405	3852
53	0	0	4091	1813	189	404	3852
54	0	0	4092	1811	192	404	3851
55	0	0	4091	1809	193	404	3851
56	0	0	4091	1808	194	405	3852
57	0	0	4091	1808	193	405	3852
58	0	0	4091	1809	193	405	3852
59	0	0	3185	1804	191	405	3852
60	0	0	2049	1806	189	405	3853
61	0	0	1397	1810	187	406	3852
62	0	0	1014	1813	184	405	3852
63	0	0	793	1816	184	405	3853
64	0	0	670	1819	181	404	3852
65	0	0	604	1821	183	404	3852
66	0	0	570	1824	182	405	3852
67	0	0	554	1826	181	405	3852
68	0	0	547	1826	181	405	3852
69	0	0	1076	1827	182	405	3851
70	0	0	2491	1827	184	404	3851
71	0	0	3330	1825	186	404	3852
72	0	0	3834	1824	188	404	3852
73	0	0	4091	1822	188	404	3852
74	0	0	4091	1819	191	405	3852
75	0	0	4091	1818	193	405	3852
76	0	0	4091	1817	194	405	3852
77	0	0	4091	1817	193	404	3852
78	0	0	4092	1818	191	405	3853
79	0	0	3646	1813	190	405	3853
80	0	0	2282	1815	189	405	3854
81	0	0	1516	1820	187	404	3852
82	0	0	1075	1822	185	404	3852
83	0	0	819	1826	183	405	3853
84	0	0	675	1829	181	404	3851
85	0	0	596	1832	181	405	3852
86	0	0	554	1834	180	405	3852
87	0	0	534	1836	181	405	3853
88	0	0	970	1838	182	404	3852
89	0	0	2390	1838	182	404	3852
90	0	0	3258	1837	183	404	3852
91	0	0	3778	1836	186	404	3852
92	0	0	4090	1834	188	404	3852
93	0	0	4091	1831	189	404	3852
94	0	0	4091	1828	191	405	3852
95	0	0	4091	1827	193	404	3852
96	0	0	4091	1826	194	405	3852
97	0	0	4091	1826	194	405	3852
98	0	0	4091	1827	191	405	3853
99	0	0	4091	1821	191	404	3853
100	0	0	2797	1824	188	405	3853
101	0	0	1807	1827	189	404	3852
102	0	0	1230	1830	185	404	3852
103	0	0	889	1834	183	405	3852
104	0	0	698	1837	182	404	3851
105	0	0	592	1839	180	405	3852
106	0	0	535	1841	181	405	3851
107	0	0	505	1842	181	404	3851
108	0	0	1065	1846	181	404	3852
109	0	0	2420	1846	183	403	3852
110	0	0	3266	1844	184	404	3852
111	0	0	3768	1842	187	404	3852
112	0	0	4068	1840	187	403	3852
113	0	0	4091	1837	191	405	3853
114	0	0	4091	1834	192	405	3852
115	0	0	4091	1832	193	405	3852
116	0	0	4091	1831	195	405	3852
117	0	0	4091	1831	194	403	3852
118	0	0	4093	1832	192	405	3853
119	0	0	3265	1824	190	405	3852
120	0	0	2050	1827	189	404	3853
121	0	0	1352	1831	188	406	3852
122	0	0	950	1832	185	404	3852
123	0	0	718	1834	184	404	3852
124	0	0	587	1837	183	404	3852
125	0	0	517	1839	181	404	3852
126	0	0	481	1840	181	405	3852
127	0	0	464	1842	182	405	3853
0	0	0	587	1843	181	404	3853
1	0	0	2056	1840	183	404	3852
2	0	0	3032	1839	185	404	3852
3	0	0	3617	1837	185	404	3853
4	0	0	3971	1833	189	404	3852
5	0	0	4092	1830	190	405	3853
6	0	0	4091	1825	193	404	3852
7	0	0	4091	1821	193	404	3851
8	0	0	4091	1818	195	404	3852
9	0	0	4092	1816	195	404	3852
10	0	0	4091	1816	194	404	3852
11	0	0	4091	1814	192	400	3852
12	0	0	3153	1808	189	405	3852
13	0	0	1966	1808	188	405	3852
14	0	0	1297	1810	185	405	3853
15	0	0	905	1811	186	405	3852
16	0	0	680	1812	183	405	3853
17	0	0	554	1812	182	405	3852
18	0	0	485	1812	182	405	3853
19	0	0	449	1812	183	405	3853
20	0	0	720	1814	182	404	3853
21	0	0	2218	1812	183	404	3852
22	0	0	3115	1810	185	404	3852
23	0	0	3653	1809	188	405	3852
24	0	0	3979	1806	189	404	3852
25	0	0	4092	1804	192	405	3853
26	0	0	4091	1800	193	405	3851
27	0	0	4091	1798	194	405	3851
28	0	0	4092	1796	194	404	3852
29	0	0	4093	1797	194	405	3852
30	0	0	4091	1796	193	405	3852
31	0	0	4093	1799	192	404	3852
32	0	0	3059	1792	189	405	3852
33	0	0	1909	1795	188	405	3852
34	0	0	1250	1798	186	405	3852
35	0	0	860	1801	185	405	3853
36	0	0	639	1803	182	405	3852
37	0	0	516	1806	181	405	3852
38	0	0	448	1808	181	404	3852
39	0	0	414	1811	183	404	3852
40	0	0	1810	1814	183	404	3852
41	0	0	2860	1813	184	404	3851
42	0	0	3490	1811	184	405	3853
43	0	0	3865	1810	187	406	3852
44	0	0	4083	1809	188	405	3852
45	0	0	4092	1806	190	405	3853
46	0	0	4091	1803	193	405	3851
47	0	0	4091	1802	193	405	3853
48	0	0	4092	1802	194	406	3852
49	0	0	3250	1793	194	404	3852
50	0	0	2117	1796	193	405	3853
51	0	0	1360	1798	192	405	3852
52	0	0	918	1802	189	405	3852
53	0	0	902	1811	187	405	3853
54	0	0	2350	1815	186	405	3852
55	0	0	3169	1817	184	405	3852
56	0	0	3662	1821	183	404	3852
57	0	0	3949	1823	181	404	3853
58	0	0	4092	1826	182	404	3852
59	0	0	4092	1827	181	405	3852
60	0	0	4091	1827	182	405	3852
61	0	0	4091	1827	182	404	3852
62	0	0	4091	1827	184	404	3852
63	0	0	4091	1827	186	404	3852
64	0	0	4092	1825	189	405	3852
65	0	0	4091	1822	191	405	3852
66	0	0	4092	1821	193	405	3853
67	0	0	4092	1819	192	404	3852
68	0	0	4091	1819	194	404	3853
69	0	0	4092	1819	194	405	3854
70	0	0	4091	1820	191	404	3853
71	0	0	2724	1816	189	405	3852
72	0	0	1677	1819	189	405	3852
73	0	0	1069	1822	187	405	3852
74	0	0	710	1826	186	405	3851
75	0	0	507	1830	184	404	3852
76	0	0	394	1833	181	404	3851
77	0	0	334	1837	180	404	3852
78	0	0	302	1839	181	405	3852
79	0	0	289	1841	181	405	3852
80	0	0	283	1841	182	404	3853
81	0	0	285	1843	182	404	3852
82	0	0	287	1842	184	405	3852
83	0	0	1831	1842	186	404	3853
84	0	0	2837	1840	186	404	3853
85	0	0	3443	1837	190	404	3853
86	0	0	3801	1835	191	404	3852
87	0	0	4014	1835	192	404	3852
88	0	0	4091	1834	194	404	3852
89	0	0	4091	1834	193	404	3852
90	0	0	4091	1836	191	404	3852
91	0	0	3392	1830	190	405	3852
92	0	0	2208	1834	189	405	3851
93	0	0	1384	1837	187	404	3852
94	0	0	900	1842	185	405	3853
95	0	0	620	1844	184	404	3852
96	0	0	459	1848	182	404	3852
97	0	0	373	1852	182	404	3852
98	0	0	327	1854	181	404	3851
99	0	0	305	1856	180	404	3852
100	0	0	296	1859	181	405	3853
101	0	0	906	1860	183	405	3852
102	0	0	2335	1860	184	404	3852
103	0	0	3143	1858	186	404	3853
104	0	0	3623	1858	187	404	3853
105	0	0	3905	1855	189	404	3852
106	0	0	4072	1853	192	404	3852
107	0	0	4091	1852	193	404	3852
108	0	0	4092	1851	193	404	3852
109	0	0	4092	1853	194	404	3852
110	0	0	4091	1855	191	404	3852
111	0	0	4091	1857	190	405	3852
112	0	0	3664	1853	189	405	3852
113	0	0	2180	1856	187	405	3852
114	0	0	1351	1860	185	404	3852
115	0	0	873	1864	183	405	3853
116	0	0	596	1867	182	404	3852
117	0	0	439	1871	181	403	3852
118	0	0	353	1874	181	404	3852
119	0	0	308	1876	181	403	3853
120	0	0	760	1881	179	404	3853
121	0	0	2209	1881	182	404	3852
122	0	0	3048	1880	184	404	3852
123	0	0	3552	1880	186	404	3852
124	0	0	3855	1877	187	404	3853
125	0	0	4030	1875	189	404	3852
126	0	0	4091	1873	192	404	3851
127	0	0	4091	1873	192	404	3851
0	0	0	4091	1871	193	404	3852
1	0	0	4092	1870	192	403	3852
2	0	0	2680	1866	192	404	3852
3	0	0	1638	1869	190	405	3852
4	0	0	1034	1874	189	404	3852
5	0	0	678	1878	187	404	3852
6	0	0	478	1883	186	404	3853
7	0	0	368	1889	182	404	3853
8	0	0	381	1896	182	404	3852
9	0	0	2070	1900	181	403	3852
10	0	0	2956	1902	180	403	3852
11	0	0	3489	1905	180	403	3852
12	0	0	3809	1906	181	404	3852
13	0	0	3995	1906	182	404	3852
14	0	0	4092	1908	183	404	3852
15	0	0	4091	1907	185	404	3852
16	0	0	4092	1907	188	403	3852
17	0	0	4091	1906	187	404	3852
18	0	0	4091	1904	190	404	3851
19	0	0	4091	1906	191	404	3853
20	0	0	4092	1907	192	405	3852
21	0	0	4091	1905	192	404	3852
22	0	0	4092	1911	189	404	3854
23	0	0	4093	1915	190	404	3854
24	0	0	4093	1916	187	404	3853
25	0	0	4092	1922	185	404	3853
26	0	0	4092	1929	185	404	3854
27	0	0	3969	1927	182	404	3853
28	0	0	2665	1930	181	404	3852
29	0	0	1596	1934	181	404	3851
30	0	0	1784	1944	180	404	3852
31	0	0	2798	1946	179	404	3852
32	0	0	3364	1947	179	404	3852
33	0	0	3699	1949	181	404	3853
34	0	0	3893	1949	184	404	3852
35	0	0	3999	1948	182	404	3852
36	0	0	4058	1946	186	404	3852
37	0	0	4088	1945	187	404	3852
38	0	0	4091	1943	190	404	3852
39	0	0	4091	1944	191	404	3853
40	0	0	4093	1945	191	404	3852
41	0	0	4092	1943	191	404	3853
42	0	0	4092	1946	189	404	3853
43	0	0	4091	1951	189	404	3852
44	0	0	4092	1955	187	404	3853
45	0	0	4092	1958	186	405	3852
46	0	0	2715	1955	183	404	3852
47	0	0	1588	1960	180	404	3852
48	0	0	935	1965	181	404	3851
49	0	0	560	1968	180	403	3851
50	0	0	376	1978	179	403	3852
51	0	0	1713	1979	179	404	3852
52	0	0	2694	1981	180	403	3853
53	0	0	3266	1980	180	403	3852
54	0	0	3607	1980	181	404	3852
55	0	0	3810	1979	183	403	3853
56	0	0	3923	1979	185	402	3853
57	0	0	3986	1977	186	403	3853
58	0	0	4022	1976	188	403	3853
59	0	0	4036	1971	188	404	3852
60	0	0	4039	1975	180	403	3852
61	0	0	2591	1979	178	404	3852
62	0	0	1495	1982	177	403	3852
63	0	0	872	1986	177	404	3851
64	0	0	509	1989	176	404	3853
65	0	0	302	1992	176	405	3852
66	0	0	699	2000	175	404	3852
67	0	0	1984	2002	175	403	3852
68	0	0	2830	2006	175	403	3853
69	0	0	3336	2006	177	403	3852
70	0	0	3641	2008	175	403	3852
71	0	0	3760	2005	175	403	3853
72	0	0	3477	2004	175	403	3853
73	0	0	3132	2004	175	403	3854
74	0	0	2835	2005	176	403	3853
75	0	0	2604	2006	175	403	3852
76	0	0	2407	2006	176	403	3852
77	0	0	2194	2005	176	403	3852
78	0	0	1930	2003	177	403	3851
79	0	0	1698	2003	176	403	3851
80	0	0	1486	2003	176	403	3852
81	0	0	1269	2002	176	404	3852
82	0	0	1078	2000	175	403	3852
83	0	0	895	1997	175	403	3851
84	0	0	703	1995	177	403	3852
85	0	0	535	1993	176	403	3852
86	0	0	369	1993	177	405	3852
87	0	0	227	1992	176	403	3853
88	0	0	148	1990	178	403	3852
89	0	0	109	1989	177	403	3853
90	0	0	90	1988	178	405	3852
91	0	0	82	1986	177	404	3853
92	0	0	81	1984	178	403	3853
93	0	0	84	1982	178	403	3852
94	0	0	87	1980	177	403	3852
95	0	0	93	1977	177	403	3852
96	0	0	98	1976	178	403	3852
97	0	0	104	1973	178	403	3852
98	0	0	110	1970	178	403	3851
99	0	0	115	1968	178	403	3851
100	0	0	122	1967	179	404	3852
101	0	0	128	1966	180	404	3852
102	0	0	134	1963	180	403	3852
103	0	0	141	1963	180	403	3852
104	0	0	147	1961	180	404	3852
105	0	0	152	1960	180	403	3852
106	0	0	159	1961	179	405	3852
107	0	0	165	1958	179	403	3853
108	0	0	171	1958	180	404	3852
109	0	0	177	1956	180	403	3852
110	0	0	183	1955	180	404	3852
111	0	0	189	1954	180	403	3852
112	0	0	195	1952	179	404	3852
113	0	0	200	1951	179	403	3852
114	0	0	207	1950	181	404	3853
115	0	0	213	1949	180	404	3853
116	0	0	218	1946	179	404	3852
117	0	0	224	1945	180	403	3852
118	0	0	230	1944	180	404	3853
119	0	0	235	1940	181	404	3840
120	0	0	241	1940	181	404	3852
121	0	0	246	1939	181	404	3853
122	0	0	252	1939	181	404	3852
123	0	0	258	1937	181	404	3852
124	0	0	263	1937	180	403	3854
125	0	0	268	1936	182	404	3852
126	0	0	274	1935	180	404	3852
127	0	0	282	1938	180	404	3852
0	0	0	285	1937	181	404	3852
1	0	0	290	1935	181	404	3851
2	0	0	295	1934	182	404	3852
3	0	0	300	1933	181	404	3851
4	0	0	306	1932	182	404	3852
5	0	0	312	1931	181	404	3852
6	0	0	317	1929	181	404	3852
7	0	0	322	1928	181	404	3852
8	0	0	327	1928	182	404	3852
9	0	0	332	1925	180	404	3852
10	0	0	337	1925	182	404	3853
11	0	0	343	1923	182	404	3852
12	0	0	348	1922	182	404	3853
13	0	0	353	1922	182	404	3853
14	0	0	358	1921	182	404	3853
15	0	0	364	1920	181	404	3852
16	0	0	368	1920	182	405	3853
17	0	0	373	1920	182	405	3853
18	0	0	377	1919	182	404	3852
19	0	0	383	1918	181	403	3852
20	0	0	388	1918	182	403	3851
21	0	0	392	1917	182	404	3852
22	0	0	398	1916	183	404	3851
23	0	0	403	1917	182	404	3852
24	0	0	407	1915	181	404	3852
25	0	0	411	1915	182	403	3852
26	0	0	417	1913	183	403	3852
27	0	0	422	1912	182	404	3852
28	0	0	426	1911	183	403	3853
29	0	0	433	1912	181	404	3852
30	0	0	435	1909	182	404	3853
31	0	0	440	1908	182	403	3852
32	0	0	445	1905	182	403	3852
33	0	0	450	1906	183	404	3852
34	0	0	455	1905	181	404	3852
35	0	0	459	1904	182	404	3851
36	0	0	464	1904	183	403	3851
37	0	0	468	1903	183	403	3852
38	0	0	474	1904	183	404	3852
39	0	0	478	1903	183	404	3852
40	0	0	482	1903	183	404	3852
41	0	0	487	1903	183	404	3853
42	0	0	492	1903	183	404	3852
43	0	0	496	1901	183	404	3852
44	0	0	500	1900	182	404	3852
45	0	0	504	1900	183	404	3852
46	0	0	509	1899	183	404	3854
47	0	0	514	1897	183	404	3852
48	0	0	518	1897	183	404	3852
49	0	0	523	1895	182	404	3852
50	0	0	527	1895	182	404	3851
51	0	0	532	1893	183	404	3851
52	0	0	535	1892	183	404	3852
53	0	0	540	1892	183	404	3852
54	0	0	546	1893	181	404	3852
55	0	0	549	1891	183	404	3852
56	0	0	553	1891	184	404	3853
57	0	0	558	1898	183	404	3852
58	0	0	856	1893	184	404	3852
59	0	0	1089	1893	184	404	3852
60	0	0	1189	1888	183	404	3852
61	0	0	1024	1887	182	404	3852
62	0	0	804	1886	183	404	3852
63	0	0	693	1887	183	404	3853
64	0	0	640	1886	184	404	3852
65	0	0	615	1886	184	404	3852
66	0	0	605	1884	183	404	3852
67	0	0	604	1885	182	404	3852
68	0	0	601	1885	183	404	3852
69	0	0	604	1883	183	404	3852
70	0	0	607	1882	182	404	3851
71	0	0	610	1881	183	404	3851
72	0	0	614	1878	183	404	3852
73	0	0	619	1880	183	404	3851
74	0	0	622	1880	183	404	3852
75	0	0	626	1881	183	404	3853
76	0	0	631	1882	184	404	3852
77	0	0	635	1882	183	404	3852
78	0	0	637	1884	183	404	3852
79	0	0	641	1885	183	404	3853
80	0	0	646	1888	183	404	3852
81	0	0	649	1888	183	404	3852
82	0	0	654	1889	183	405	3851
83	0	0	658	1890	184	404	3851
84	0	0	661	1891	183	404	3852
85	0	0	665	1893	185	404	3852
86	0	0	669	1894	184	404	3851
87	0	0	673	1894	184	404	3851
88	0	0	677	1896	184	404	3851
89	0	0	680	1896	184	404	3852
90	0	0	685	1897	185	404	3851
91	0	0	689	1897	182	404	3852
92	0	0	692	1898	183	404	3852
93	0	0	696	1901	183	404	3852
94	0	0	708	1905	182	403	3853
95	0	0	804	1907	183	404	3853
96	0	0	819	1905	184	403	3852
97	0	0	834	1910	184	404	3852
98	0	0	866	1912	184	404	3853
99	0	0	890	1911	183	404	3853
100	0	0	896	1913	183	404	3853
101	0	0	893	1913	183	404	3851
102	0	0	879	1915	184	403	3852
103	0	0	894	1918	183	404	3851
104	0	0	915	1920	183	404	3852
105	0	0	943	1920	183	404	3851
106	0	0	976	1921	184	404	3852
107	0	0	1011	1922	183	405	3852
108	0	0	1071	1923	184	404	3852
109	0	0	1143	1924	184	404	3853
110	0	0	1178	1922	184	404	3852
111	0	0	1266	1924	184	404	3852
112	0	0	1369	1923	183	404	3853
113	0	0	1445	1925	183	404	3853
114	0	0	1532	1926	183	404	3852
115	0	0	1608	1927	183	404	3852
116	0	0	1642	1929	184	404	3852
117	0	0	1658	1930	184	405	3851
118	0	0	1664	1932	184	404	3851
119	0	0	1659	1931	183	404	3852
120	0	0	1657	1932	183	404	3851
121	0	0	1637	1932	183	404	3852
122	0	0	1621	1935	184	404	3851
123	0	0	1640	1938	183	404	3852
124	0	0	1658	1938	182	404	3852
125	0	0	1676	1939	183	404	3853
126	0	0	1695	1939	183	404	3852
127	0	0	1717	1940	183	404	3852
0	0	0	1752	1940	183	404	3852
1	0	0	1791	1940	185	404	3853
2	0	0	1798	1939	184	404	3852
3	0	0	1852	1940	183	404	3852
4	0	0	1921	1940	183	404	3852
5	0	0	1979	1940	183	404	3852
6	0	0	2061	1941	183	404	3852
7	0	0	2118	1942	184	404	3851
8	0	0	2119	1943	184	404	3852
9	0	0	2134	1944	183	404	3851
10	0	0	2147	1946	184	404	3852
11	0	0	2140	1946	184	403	3852
12	0	0	2136	1947	184	403	3851
13	0	0	2106	1946	183	403	3852
14	0	0	2083	1948	184	405	3852
15	0	0	2095	1950	183	403	3852
16	0	0	2113	1951	184	404	3853
17	0	0	2137	1951	183	404	3852
18	0	0	2156	1950	183	404	3852
19	0	0	2173	1950	184	404	3853
20	0	0	2203	1951	184	404	3852
21	0	0	2240	1950	183	404	3852
22	0	0	2259	1951	185	403	3851
23	0	0	2327	1950	183	404	3851
24	0	0	2412	1950	183	404	3851
25	0	0	2487	1951	184	404	3851
26	0	0	2576	1951	183	403	3852
27	0	0	2643	1952	183	403	3851
28	0	0	2672	1954	184	403	3852
29	0	0	2678	1955	183	404	3852
30	0	0	2675	1956	183	404	3852
31	0	0	2672	1957	184	404	3853
32	0	0	2671	1957	184	404	3852
33	0	0	2650	1956	184	404	3851
34	0	0	2626	1958	185	404	3852
35	0	0	2620	1960	184	404	3852
36	0	0	2604	1959	183	404	3853
37	0	0	2591	1959	184	404	3852
38	0	0	2580	1959	184	404	3852
39	0	0	2579	1960	184	404	3852
40	0	0	2585	1960	184	404	3852
41	0	0	2597	1959	183	403	3852
42	0	0	2582	1959	184	404	3852
43	0	0	2616	1959	184	404	3851
44	0	0	2659	1959	184	404	3851
45	0	0	2686	1959	183	404	3851
46	0	0	2724	1959	183	404	3852
47	0	0	2722	1959	183	404	3852
48	0	0	2711	1962	184	404	3853
49	0	0	2716	1963	183	403	3852
50	0	0	2715	1963	184	404	3853
51	0	0	2689	1963	184	403	3852
52	0	0	2675	1964	184	403	3852
53	0	0	2635	1962	184	404	3852
54	0	0	2593	1963	184	404	3852
55	0	0	2580	1967	183	404	3852
56	0	0	2578	1966	183	403	3852
57	0	0	2575	1967	184	403	3852
58	0	0	2573	1966	184	403	3851
59	0	0	2581	1965	183	403	3851
60	0	0	2596	1966	184	404	3852
61	0	0	2611	1964	183	404	3852
62	0	0	2594	1964	183	404	3851
63	0	0	2633	1964	183	403	3853
64	0	0	2695	1964	183	404	3852
65	0	0	2732	1965	184	404	3852
66	0	0	2783	1964	184	405	3852
67	0	0	2814	1966	183	404	3853
68	0	0	2811	1967	184	403	3852
69	0	0	2801	1966	184	403	3852
70	0	0	2779	1966	182	403	3852
71	0	0	2751	1965	183	403	3852
72	0	0	2726	1966	184	404	3851
73	0	0	2687	1966	183	403	3852
74	0	0	2662	1969	183	403	3851
75	0	0	2663	1969	184	405	3852
76	0	0	2664	1970	184	404	3852
77	0	0	2663	1970	184	403	3851
78	0	0	2668	1969	185	403	3852
79	0	0	2681	1969	184	404	3852
80	0	0	2712	1968	183	403	3852
81	0	0	2757	1966	184	404	3852
82	0	0	2776	1966	183	403	3851
83	0	0	2837	1966	183	404	3851
84	0	0	2909	1965	184	404	3852
85	0	0	2966	1966	184	404	3852
86	0	0	3027	1967	184	404	3853
87	0	0	3054	1966	184	404	3852
88	0	0	3075	1967	184	404	3852
89	0	0	3094	1968	183	403	3852
90	0	0	3098	1968	184	405	3852
91	0	0	3093	1969	184	404	3852
92	0	0	3087	1970	184	404	3852
93	0	0	3061	1968	185	403	3851
94	0	0	3034	1969	185	404	3851
95	0	0	3038	1970	184	404	3851
96	0	0	3060	1970	183	404	3852
97	0	0	3084	1968	183	403	3852
98	0	0	3100	1968	183	403	3852
99	0	0	3127	1967	184	404	3852
100	0	0	3161	1966	184	404	3852
101	0	0	3201	1965	183	404	3852
102	0	0	3218	1965	185	404	3852
103	0	0	3278	1964	183	403	3853
104	0	0	3360	1963	184	404	3853
105	0	0	3422	1963	183	404	3852
106	0	0	3494	1963	183	404	3852
107	0	0	3547	1963	185	404	3851
108	0	0	3559	1965	184	403	3852
109	0	0	3561	1965	183	403	3852
110	0	0	3553	1965	184	404	3852
111	0	0	3534	1964	184	403	3852
112	0	0	3516	1966	184	404	3851
113	0	0	3484	1965	185	403	3851
114	0	0	3454	1965	184	404	3852
115	0	0	3438	1965	184	403	3852
116	0	0	3410	1964	184	404	3852
117	0	0	3376	1963	184	403	3852
118	0	0	3345	1962	184	404	3853
119	0	0	3313	1963	184	404	3852
120	0	0	3319	1961	183	404	3852
121	0	0	3405	1959	184	403	3852
122	0	0	3487	1958	184	404	3852
123	0	0	3630	1957	184	404	3851
124	0	0	3774	1957	184	404	3851
125	0	0	3807	1956	184	404	3852
126	0	0	3775	1956	184	404	3852
127	0	0	3732	1955	183	403	3851
0	0	0	3664	1953	183	402	3852
1	0	0	3590	1954	183	404	3855
2	0	0	3520	1953	184	404	3851
3	0	0	3447	1953	183	403	3852
4	0	0	3388	1953	184	404	3851
5	0	0	3345	1956	183	403	3852
6	0	0	3317	1957	184	404	3852
7	0	0	3286	1956	184	404	3853
8	0	0	3243	1952	184	404	3852
9	0	0	3173	1950	184	404	3853
10	0	0	3074	1948	184	404	3852
11	0	0	2912	1948	183	404	3851
12	0	0	2734	1947	184	404	3852
13	0	0	2747	1950	184	404	3852
14	0	0	2816	1949	184	404	3851
15	0	0	2920	1946	184	404	3851
16	0	0	3001	1946	184	404	3852
17	0	0	3046	1946	185	404	3852
18	0	0	3087	1946	183	404	3853
19	0	0	3086	1945	183	404	3852
20	0	0	3034	1942	184	404	3852
21	0	0	2979	1943	184	404	3852
22	0	0	2913	1942	184	404	3853
23	0	0	2850	1942	184	404	3853
24	0	0	2791	1942	183	404	3852
25	0	0	2747	1942	183	404	3852
26	0	0	2713	1943	184	404	3852
27	0	0	2678	1942	184	404	3852
28	0	0	2656	1943	183	403	3852
29	0	0	2642	1941	184	404	3851
30	0	0	2630	1942	182	404	3851
31	0	0	2632	1940	184	404	3852
32	0	0	2642	1939	184	404	3852
33	0	0	2651	1937	183	403	3852
34	0	0	2627	1937	184	404	3851
35	0	0	2658	1936	184	404	3851
36	0	0	2693	1934	185	404	3852
37	0	0	2692	1933	183	404	3852
38	0	0	2687	1934	184	404	3853
39	0	0	2673	1932	184	404	3852
40	0	0	2633	1931	183	404	3853
41	0	0	2579	1931	185	404	3853
42	0	0	2517	1930	184	404	3853
43	0	0	2460	1929	185	404	3852
44	0	0	2406	1930	185	404	3851
45	0	0	2342	1929	183	404	3851
46	0	0	2272	1929	184	404	3851
47	0	0	2218	1929	184	405	3851
48	0	0	2165	1928	183	404	3852
49	0	0	2114	1927	184	404	3852
50	0	0	2052	1927	184	404	3851
51	0	0	2005	1925	183	404	3851
52	0	0	1987	1924	184	404	3852
53	0	0	1972	1923	184	404	3852
54	0	0	1935	1922	185	404	3852
55	0	0	1957	1924	183	404	3853
56	0	0	1979	1923	183	404	3852
57	0	0	1982	1923	185	404	3853
58	0	0	2000	1921	183	404	3852
59	0	0	1991	1919	184	404	3852
60	0	0	1949	1918	184	404	3852
61	0	0	1894	1917	184	403	3852
62	0	0	1830	1918	183	403	3851
63	0	0	1765	1917	183	403	3852
64	0	0	1706	1918	184	403	3851
65	0	0	1631	1917	184	403	3852
66	0	0	1557	1918	184	404	3851
67	0	0	1506	1916	184	403	3852
68	0	0	1470	1916	184	403	3852
69	0	0	1436	1915	185	404	3852
70	0	0	1394	1914	183	405	3852
71	0	0	1353	1913	184	404	3852
72	0	0	1323	1912	183	404	3853
73	0	0	1298	1909	183	403	3852
74	0	0	1249	1909	184	404	3853
75	0	0	1264	1911	184	404	3851
76	0	0	1298	1909	183	404	3852
77	0	0	1313	1910	183	404	3852
78	0	0	1368	1909	183	403	3851
79	0	0	1421	1909	183	404	3852
80	0	0	1426	1906	183	404	3854
81	0	0	1403	1905	184	404	3851
82	0	0	1379	1906	183	403	3852
83	0	0	1352	1904	183	403	3852
84	0	0	1330	1904	184	404	3851
85	0	0	1296	1903	183	404	3851
86	0	0	1269	1904	183	404	3851
87	0	0	1273	1904	184	404	3851
88	0	0	1286	1905	184	403	3852
89	0	0	1307	1904	184	404	3852
90	0	0	1326	1903	183	404	3852
91	0	0	1352	1903	184	404	3852
92	0	0	1379	1900	184	404	3852
93	0	0	1411	1898	184	403	3852
94	0	0	1415	1897	183	404	3851
95	0	0	1478	1897	183	404	3852
96	0	0	1561	1896	185	404	3851
97	0	0	1615	1895	184	404	3851
98	0	0	1677	1895	184	404	3852
99	0	0	1725	1893	182	404	3851
100	0	0	1736	1893	184	404	3852
101	0	0	1729	1891	183	404	3851
102	0	0	1714	1891	184	404	3852
103	0	0	1686	1889	183	403	3852
104	0	0	1669	1890	183	404	3851
105	0	0	1640	1888	184	404	3852
106	0	0	1605	1888	184	404	3852
107	0	0	1593	1889	184	404	3852
108	0	0	1591	1888	185	405	3853
109	0	0	1586	1885	184	404	3851
110	0	0	1585	1886	184	404	3851
111	0	0	1595	1886	183	403	3851
112	0	0	1634	1884	183	403	3851
113	0	0	1678	1883	183	403	3852
114	0	0	1703	1880	184	404	3851
115	0	0	1775	1878	183	404	3851
116	0	0	1840	1878	185	404	3851
117	0	0	1875	1878	184	404	3852
118	0	0	1934	1876	183	404	3852
119	0	0	1978	1877	185	405	3853
120	0	0	1984	1875	183	405	3851
121	0	0	1981	1875	184	403	3852
122	0	0	1982	1874	184	404	3852
123	0	0	1995	1873	184	404	3852
124	0	0	2019	1873	185	405	3852
125	0	0	2018	1871	183	405	3853
126	0	0	1995	1869	184	404	3852
127	0	0	1986	1870	184	404	3852
0	0	0	1975	1867	184	404	3852
1	0	0	1963	1866	184	404	3852
2	0	0	1943	1863	184	405	3851
3	0	0	1930	1863	184	404	3851
4	0	0	1929	1863	183	404	3851
5	0	0	1939	1859	183	405	3852
6	0	0	1917	1858	183	404	3851
7	0	0	1962	1857	184	405	3851
8	0	0	2038	1856	184	404	3851
9	0	0	2092	1854	183	405	3851
10	0	0	2159	1853	184	403	3852
11	0	0	2209	1853	184	404	3853
12	0	0	2215	1852	184	404	3852
13	0	0	2197	1849	185	405	3852
14	0	0	2172	1847	184	404	3851
15	0	0	2138	1845	184	404	3852
16	0	0	2116	1845	184	404	3851
17	0	0	2083	1844	184	404	3852
18	0	0	2042	1844	185	404	3851
19	0	0	2041	1845	183	404	3851
20	0	0	2044	1843	184	403	3852
21	0	0	2053	1841	184	404	3851
22	0	0	2058	1839	183	404	3852
23	0	0	2066	1838	185	404	3852
24	0	0	2083	1837	183	405	3852
25	0	0	2107	1833	183	404	3852
26	0	0	2103	1830	183	405	3851
27	0	0	2148	1829	182	405	3852
28	0	0	2198	1828	184	405	3852
29	0	0	2240	1826	183	405	3852
30	0	0	2304	1825	184	404	3852
31	0	0	2342	1823	183	405	3852
32	0	0	2333	1825	184	404	3852
33	0	0	2308	1821	184	405	3851
34	0	0	2284	1819	185	405	3852
35	0	0	2253	1818	184	405	3852
36	0	0	2218	1817	183	404	3851
37	0	0	2164	1816	185	404	3851
38	0	0	2109	1815	183	405	3851
39	0	0	2084	1815	183	405	3851
40	0	0	2072	1813	185	405	3852
41	0	0	2067	1812	184	405	3852
42	0	0	2061	1812	183	404	3852
43	0	0	2068	1809	183	405	3852
44	0	0	2087	1807	184	405	3853
45	0	0	2113	1805	185	405	3852
46	0	0	2104	1803	184	405	3852
47	0	0	2146	1800	183	405	3851
48	0	0	2207	1799	184	405	3852
49	0	0	2249	1797	184	405	3851
50	0	0	2310	1798	183	404	3852
51	0	0	2351	1796	183	405	3851
52	0	0	2354	1795	184	404	3851
53	0	0	2347	1795	183	405	3851
54	0	0	2334	1793	184	406	3851
55	0	0	2310	1789	184	403	3851
56	0	0	2284	1789	184	404	3851
57	0	0	2239	1787	183	404	3851
58	0	0	2199	1786	185	400	3852
59	0	0	2185	1786	184	400	3852
60	0	0	2169	1784	184	400	3852
61	0	0	2156	1781	184	400	3853
62	0	0	2143	1780	184	403	3852
63	0	0	2140	1779	183	404	3852
64	0	0	2151	1777	184	404	3853
65	0	0	2160	1772	183	404	3852
66	0	0	2142	1771	185	404	3851
67	0	0	2164	1769	183	404	3852
68	0	0	2213	1767	184	404	3852
69	0	0	2272	1764	184	404	3852
70	0	0	2347	1763	183	400	3851
71	0	0	2382	1762	184	400	3852
72	0	0	2392	1762	183	400	3853
73	0	0	2383	1761	183	405	3852
74	0	0	2369	1759	184	404	3851
75	0	0	2338	1755	185	404	3852
76	0	0	2315	1755	183	400	3852
77	0	0	2279	1753	184	400	3852
78	0	0	2246	1751	184	405	3852
79	0	0	2238	1753	185	405	3853
80	0	0	2232	1750	183	403	3852
81	0	0	2231	1748	184	404	3852
82	0	0	2217	1746	184	404	3853
83	0	0	2219	1744	184	404	3852
84	0	0	2227	1741	184	405	3851
85	0	0	2243	1740	183	404	3851
86	0	0	2231	1738	184	404	3851
87	0	0	2265	1737	184	401	3851
88	0	0	2320	1735	183	401	3851
89	0	0	2358	1734	185	401	3851
90	0	0	2403	1734	184	400	3852
91	0	0	2430	1734	184	405	3853
92	0	0	2428	1734	185	404	3852
93	0	0	2393	1732	184	405	3852
94	0	0	2351	1732	183	405	3852
95	0	0	2309	1732	184	404	3852
96	0	0	2268	1731	184	405	3852
97	0	0	2213	1731	186	405	3852
98	0	0	2157	1731	183	404	3852
99	0	0	2130	1733	184	405	3851
100	0	0	2120	1732	184	404	3852
101	0	0	2108	1729	184	405	3851
102	0	0	2095	1729	185	405	3852
103	0	0	2092	1728	184	405	3852
104	0	0	2100	1727	183	404	3852
105	0	0	2119	1725	185	400	3852
106	0	0	2106	1722	184	400	3851
107	0	0	2128	1722	185	400	3852
108	0	0	2198	1720	183	401	3852
109	0	0	2261	1719	183	405	3853
110	0	0	2325	1719	184	404	3852
111	0	0	2364	1718	184	404	3852
112	0	0	2368	1718	184	405	3852
113	0	0	2347	1716	184	405	3852
114	0	0	2327	1717	184	405	3851
115	0	0	2307	1714	183	405	3852
116	0	0	2293	1716	184	404	3851
117	0	0	2264	1714	185	404	3852
118	0	0	2231	1713	184	401	3852
119	0	0	2217	1713	185	401	3852
120	0	0	2212	1713	184	405	3852
121	0	0	2219	1711	184	405	3852
122	0	0	2226	1708	184	405	3851
123	0	0	2251	1707	183	401	3851
124	0	0	2281	1704	184	401	3851
125	0	0	2317	1701	184	401	3852
126	0	0	2326	1699	185	405	3851
127	0	0	2380	1697	184	405	3852
0	0	0	2455	1696	184	404	3852
1	0	0	2509	1694	184	405	3852
2	0	0	2573	1694	184	404	3852
3	0	0	2622	1693	184	405	3852
4	0	0	2647	1695	185	405	3852
5	0	0	2660	1694	185	405	3852
6	0	0	2662	1694	184	401	3851
7	0	0	2663	1695	183	401	3852
8	0	0	2661	1694	185	401	3852
9	0	0	2638	1693	184	401	3851
10	0	0	2626	1691	184	405	3852
11	0	0	2646	1692	184	405	3852
12	0	0	2672	1690	183	405	3852
13	0	0	2697	1688	183	401	3852
14	0	0	2718	1685	185	405	3853
15	0	0	2736	1683	183	405	3852
16	0	0	2764	1682	184	405	3852
17	0	0	2802	1679	185	405	3853
18	0	0	2793	1675	185	405	3852
19	0	0	2845	1673	183	405	3853
20	0	0	2935	1673	184	405	3852
21	0	0	3009	1670	184	405	3851
22	0	0	3081	1671	183	405	3852
23	0	0	3135	1669	185	405	3851
24	0	0	3145	1670	185	401	3851
25	0	0	3136	1670	183	401	3851
26	0	0	3122	1669	183	401	3853
27	0	0	3100	1669	183	401	3852
28	0	0	3080	1670	184	405	3851
29	0	0	3047	1667	183	405	3852
30	0	0	3017	1666	184	405	3851
31	0	0	3003	1667	183	405	3852
32	0	0	2995	1665	184	405	3852
33	0	0	2996	1661	185	405	3852
34	0	0	2997	1661	185	405	3852
35	0	0	3000	1658	183	404	3852
36	0	0	3016	1656	184	405	3853
37	0	0	3036	1652	184	404	3852
38	0	0	3019	1648	183	401	3852
39	0	0	3050	1647	184	405	3851
40	0	0	3107	1645	184	401	3851
41	0	0	3135	1644	183	401	3851
42	0	0	3171	1642	184	401	3852
43	0	0	3195	1642	184	405	3851
44	0	0	3186	1641	184	405	3853
45	0	0	3162	1641	184	405	3852
46	0	0	3125	1637	184	405	3852
47	0	0	3084	1636	184	405	3852
48	0	0	3055	1636	184	405	3851
49	0	0	3010	1634	185	405	3851
50	0	0	2975	1634	184	405	3852
51	0	0	2960	1633	184	405	3852
52	0	0	2948	1630	183	404	3852
53	0	0	2943	1627	184	405	3852
54	0	0	2933	1624	183	405	3852
55	0	0	2936	1621	184	405	3851
56	0	0	2941	1618	184	405	3851
57	0	0	2952	1613	184	401	3851
58	0	0	2917	1610	184	401	3852
59	0	0	2959	1607	184	403	3851
60	0	0	3025	1603	183	402	3851
61	0	0	3064	1601	184	405	3852
62	0	0	3107	1599	184	405	3852
63	0	0	3130	1598	184	405	3852
64	0	0	3113	1596	184	405	3851
65	0	0	3079	1593	183	406	3851
66	0	0	3045	1594	184	405	3852
67	0	0	3014	1590	183	405	3852
68	0	0	2981	1590	183	405	3852
69	0	0	2936	1587	183	405	3852
70	0	0	2888	1586	184	402	3852
71	0	0	2868	1586	184	401	3851
72	0	0	2857	1583	183	406	3851
73	0	0	2846	1580	184	405	3851
74	0	0	2833	1578	184	406	3851
75	0	0	2824	1575	184	402	3852
76	0	0	2826	1571	183	402	3852
77	0	0	2834	1567	183	402	3851
78	0	0	2810	1564	184	406	3851
79	0	0	2846	1560	184	406	3851
80	0	0	2903	1558	184	405	3852
81	0	0	2936	1556	184	406	3852
82	0	0	2982	1555	184	406	3853
83	0	0	3009	1553	184	406	3852
84	0	0	3004	1552	184	406	3852
85	0	0	2988	1552	183	407	3852
86	0	0	2968	1551	185	402	3852
87	0	0	2946	1549	184	402	3852
88	0	0	2921	1547	184	402	3852
89	0	0	2873	1545	185	402	3851
90	0	0	2832	1543	183	406	3851
91	0	0	2817	1543	184	406	3852
92	0	0	2793	1538	184	406	3852
93	0	0	2774	1534	184	403	3852
94	0	0	2752	1531	186	399	3851
95	0	0	2738	1526	184	399	3852
96	0	0	2731	1521	184	399	3851
97	0	0	2716	1514	184	400	3852
98	0	0	2688	1512	183	400	3852
99	0	0	2727	1508	184	400	3852
100	0	0	2789	1505	183	399	3856
101	0	0	2825	1501	184	399	3852
102	0	0	2878	1498	183	399	3852
103	0	0	2907	1497	184	399	3851
104	0	0	2896	1494	184	403	3851
105	0	0	2870	1491	184	403	3852
106	0	0	2849	1486	184	403	3851
107	0	0	2817	1481	183	404	3852
108	0	0	2795	1477	183	399	3851
109	0	0	2754	1468	185	400	3852
110	0	0	2712	1462	184	400	3851
111	0	0	2692	1458	184	400	3852
112	0	0	2669	1451	185	400	3852
113	0	0	2651	1443	184	400	3851
114	0	0	2634	1435	184	400	3851
115	0	0	2624	1428	183	401	3852
116	0	0	2635	1419	183	400	3852
117	0	0	2671	1411	184	401	3852
118	0	0	2674	1402	183	405	3852
119	0	0	2733	1396	183	400	3852
120	0	0	2809	1389	184	399	3852
121	0	0	2845	1383	185	400	3852
122	0	0	2884	1379	184	404	3852
123	0	0	2902	1376	184	404	3851
124	0	0	2878	1372	185	405	3852
125	0	0	2838	1367	184	404	3852
126	0	0	2783	1363	184	401	3851
127	0	0	2723	1359	184	401	3851
0	0	0	2665	1357	184	401	3852
1	0	0	2597	1353	184	400	3851
2	0	0	2528	1348	181	400	3851
3	0	0	2493	1345	184	401	3852
4	0	0	2467	1340	183	400	3851
5	0	0	2457	1335	183	401	3853
6	0	0	2448	1330	184	404	3852
7	0	0	2463	1323	183	405	3852
8	0	0	2492	1316	183	405	3852
9	0	0	2512	1309	185	401	3852
10	0	0	2531	1303	183	400	3851
11	0	0	2607	1296	185	401	3852
12	0	0	2698	1292	183	405	3852
13	0	0	2762	1287	184	405	3851
14	0	0	2839	1286	184	401	3851
15	0	0	2886	1284	184	401	3851
16	0	0	2891	1282	183	402	3852
17	0	0	2870	1281	183	401	3852
18	0	0	2841	1279	183	400	3852
19	0	0	2801	1273	183	400	3852
20	0	0	2765	1272	184	400	3851
21	0	0	2713	1268	183	400	3851
22	0	0	2657	1266	183	400	3852
23	0	0	2627	1264	184	400	3852
24	0	0	2598	1258	183	400	3852
25	0	0	2571	1252	183	400	3852
26	0	0	2537	1247	184	400	3852
27	0	0	2512	1242	184	400	3852
28	0	0	2499	1237	184	400	3852
29	0	0	2499	1231	184	400	3851
30	0	0	2476	1224	184	401	3852
31	0	0	2509	1219	185	401	3851
32	0	0	2558	1215	185	401	3851
33	0	0	2592	1210	184	401	3852
34	0	0	2634	1210	183	401	3851
35	0	0	2664	1208	183	400	3851
36	0	0	2657	1207	184	400	3852
37	0	0	2635	1206	184	401	3853
38	0	0	2612	1204	184	401	3852
39	0	0	2585	1202	184	401	3852
40	0	0	2567	1203	184	401	3852
41	0	0	2525	1197	183	400	3852
42	0	0	2480	1195	184	401	3851
43	0	0	2452	1192	184	401	3851
44	0	0	2435	1189	184	401	3851
45	0	0	2415	1181	184	401	3851
46	0	0	2396	1177	184	401	3851
47	0	0	2387	1173	184	400	3851
48	0	0	2377	1164	183	401	3851
49	0	0	2382	1158	185	402	3851
50	0	0	2373	1151	184	401	3851
51	0	0	2416	1145	184	401	3852
52	0	0	2472	1141	184	401	3852
53	0	0	2514	1136	184	401	3852
54	0	0	2572	1133	184	402	3853
55	0	0	2612	1135	184	401	3852
56	0	0	2614	1132	183	401	3853
57	0	0	2602	1132	185	401	3853
58	0	0	2587	1130	184	401	3852
59	0	0	2569	1129	183	401	3852
60	0	0	2549	1128	184	401	3851
61	0	0	2513	1122	184	401	3852
62	0	0	2479	1118	184	402	3852
63	0	0	2469	1117	183	402	3852
64	0	0	2471	1112	183	401	3852
65	0	0	2476	1107	184	401	3851
66	0	0	2465	1098	184	401	3852
67	0	0	2465	1091	183	402	3853
68	0	0	2476	1084	185	401	3852
69	0	0	2493	1076	184	402	3852
70	0	0	2484	1067	183	403	3852
71	0	0	2523	1059	183	402	3851
72	0	0	2585	1054	184	401	3852
73	0	0	2618	1050	184	402	3852
74	0	0	2661	1048	184	401	3852
75	0	0	2690	1047	183	402	3852
76	0	0	2681	1046	184	402	3852
77	0	0	2659	1044	184	402	3851
78	0	0	2635	1043	185	402	3852
79	0	0	2607	1040	184	402	3852
80	0	0	2582	1038	184	402	3851
81	0	0	2529	1033	184	402	3852
82	0	0	2473	1029	183	402	3852
83	0	0	2443	1022	183	403	3852
84	0	0	2416	1017	183	403	3852
85	0	0	2405	1009	184	403	3851
86	0	0	2389	998	183	403	3852
87	0	0	2379	988	183	403	3852
88	0	0	2365	974	182	403	3852
89	0	0	2377	960	184	404	3852
90	0	0	2361	947	184	404	3853
91	0	0	2389	933	183	403	3852
92	0	0	2442	921	185	404	3852
93	0	0	2476	912	184	404	3852
94	0	0	2523	906	184	404	3852
95	0	0	2560	901	183	404	3851
96	0	0	2558	894	183	403	3852
97	0	0	2535	887	185	403	3851
98	0	0	2506	881	183	403	3851
99	0	0	2469	873	183	404	3851
100	0	0	2434	868	184	404	3851
101	0	0	2380	859	184	404	3851
102	0	0	2328	847	184	404	3851
103	0	0	2307	837	183	405	3851
104	0	0	2290	824	184	405	3852
105	0	0	2271	805	184	405	3853
106	0	0	2234	785	186	405	3852
107	0	0	2197	765	184	404	3852
108	0	0	2173	748	184	404	3853
109	0	0	2162	728	183	404	3851
110	0	0	2107	702	184	404	3851
111	0	0	2107	690	184	405	3851
112	0	0	2126	678	184	405	3851
113	0	0	2125	665	184	405	3852
114	0	0	2144	661	183	405	3852
115	0	0	2151	655	184	405	3851
116	0	0	2120	649	183	405	3852
117	0	0	2082	642	184	405	3851
118	0	0	2041	638	184	405	3851
119	0	0	1995	634	184	405	3852
120	0	0	1943	630	184	405	3853
121	0	0	1869	622	184	401	3852
122	0	0	1780	614	183	401	3852
123	0	0	1702	601	184	401	3852
124	0	0	1622	592	184	401	3852
125	0	0	1554	574	184	405	3851
126	0	0	1482	562	184	405	3851
127	0	0	1402	544	184	405	3852
0	0	0	1345	526	184	405	3852
1	0	0	1305	510	184	399	3852
2	0	0	1236	490	184	399	3857
3	0	0	1213	480	183	399	3851
4	0	0	1221	467	184	400	3851
5	0	0	1210	459	183	400	3852
6	0	0	1234	460	184	404	3851
7	0	0	1248	455	184	404	3852
8	0	0	1221	454	184	401	3852
9	0	0	1183	452	184	400	3852
10	0	0	1144	451	185	400	3852
11	0	0	1107	450	184	401	3852
12	0	0	1071	447	183	399	3852
13	0	0	1017	444	183	403	3853
14	0	0	958	438	183	400	3852
15	0	0	922	429	184	399	3852
16	0	0	898	423	183	400	3851
17	0	0	886	409	184	400	3852
18	0	0	872	395	185	400	3851
19	0	0	863	383	184	400	3852
20	0	0	861	368	185	400	3852
21	0	0	864	354	185	400	3850
22	0	0	828	334	185	401	3851
23	0	0	849	328	184	400	3852
24	0	0	903	321	184	405	3852
25	0	0	923	315	184	404	3852
26	0	0	963	315	184	405	3852
27	0	0	993	316	184	404	3852
28	0	0	982	313	183	400	3852
29	0	0	958	315	184	400	3852
30	0	0	938	317	184	400	3852
31	0	0	924	318	184	401	3852
32	0	0	914	321	184	401	3852
33	0	0	886	318	184	399	3851
34	0	0	856	313	184	401	3851
35	0	0	854	309	184	401	3852
36	0	0	854	305	184	401	3851
37	0	0	868	294	185	401	3851
38	0	0	865	280	184	404	3851
39	0	0	871	271	184	401	3852
40	0	0	905	260	184	401	3852
41	0	0	945	248	183	400	3852
42	0	0	914	229	183	400	3851
43	0	0	949	224	185	400	3852
44	0	0	997	217	185	400	3852
45	0	0	1026	213	184	400	3853
46	0	0	1061	217	183	401	3852
47	0	0	1078	216	183	401	3852
48	0	0	1053	218	184	400	3853
49	0	0	1013	220	184	401	3852
50	0	0	972	224	184	400	3852
51	0	0	925	226	184	400	3852
52	0	0	884	231	185	400	3851
53	0	0	837	230	184	401	3851
54	0	0	797	228	184	400	3851
55	0	0	783	226	183	400	3851
56	0	0	793	219	183	400	3851
57	0	0	804	210	184	401	3853
58	0	0	809	201	184	402	3852
59	0	0	828	194	185	401	3852
60	0	0	868	182	184	400	3852
61	0	0	915	171	183	401	3852
62	0	0	919	156	183	401	3852
63	0	0	987	148	184	400	3852
64	0	0	1091	143	183	402	3852
65	0	0	1171	142	185	401	3852
66	0	0	1265	144	184	401	3851
67	0	0	1342	150	183	401	3851
68	0	0	1381	154	184	401	3852
69	0	0	1399	157	186	401	3851
70	0	0	1413	164	184	401	3852
71	0	0	1416	165	184	401	3851
72	0	0	1423	172	184	401	3851
73	0	0	1400	170	184	400	3851
74	0	0	1364	168	183	401	3852
75	0	0	1356	168	183	401	3852
76	0	0	1366	165	183	401	3852
77	0	0	1383	160	185	401	3852
78	0	0	1391	157	184	400	3852
79	0	0	1421	155	182	401	3852
80	0	0	1473	153	184	401	3852
81	0	0	1533	153	183	401	3853
82	0	0	1561	150	183	401	3851
83	0	0	1645	151	184	401	3852
84	0	0	1764	153	184	401	3852
85	0	0	1879	158	183	401	3852
86	0	0	2021	166	184	401	3851
87	0	0	2133	175	184	401	3852
88	0	0	2203	181	183	401	3851
89	0	0	2254	189	185	400	3851
90	0	0	2288	196	185	401	3852
91	0	0	2301	202	183	400	3852
92	0	0	2276	204	183	400	3851
93	0	0	2231	204	184	400	3853
94	0	0	2174	202	184	401	3853
95	0	0	2133	200	184	401	3852
96	0	0	2097	195	184	401	3852
97	0	0	2068	186	184	401	3852
98	0	0	2062	180	185	400	3852
99	0	0	2073	168	182	401	3851
100	0	0	2104	159	183	401	3852
101	0	0	2141	145	184	401	3852
102	0	0	2133	132	184	401	3851
103	0	0	2177	125	183	400	3851
104	0	0	2266	119	183	401	3851
105	0	0	2331	118	184	401	3852
106	0	0	2403	119	183	401	3851
107	0	0	2468	126	185	400	3852
108	0	0	2494	129	184	402	3852
109	0	0	2487	135	183	401	3852
110	0	0	2461	138	184	401	3852
111	0	0	2429	141	183	401	3852
112	0	0	2407	147	184	401	3852
113	0	0	2377	149	183	402	3851
114	0	0	2340	148	184	401	3852
115	0	0	2323	148	184	401	3852
116	0	0	2304	142	183	401	3851
117	0	0	2285	134	184	401	3851
118	0	0	2253	126	183	401	3851
119	0	0	2246	118	182	401	3852
120	0	0	2258	109	184	401	3852
121	0	0	2281	99	183	401	3851
122	0	0	2258	87	185	401	3851
123	0	0	2305	79	184	401	3851
124	0	0	2389	73	184	401	3851
125	0	0	2445	73	184	402	3852
126	0	0	2504	77	184	402	3852
127	0	0	2551	84	184	402	3853
0	0	0	2557	88	184	401	3853
1	0	0	2555	95	183	401	3852
2	0	0	2557	101	184	401	3852
3	0	0	2552	106	183	401	3853
4	0	0	2540	112	183	401	3851
5	0	0	2499	112	184	400	3852
6	0	0	2451	111	184	401	3852
7	0	0	2421	111	183	401	3852
8	0	0	2398	107	184	401	3852
9	0	0	2387	105	184	401	3851
10	0	0	2374	95	184	401	3852
11	0	0	2369	86	183	402	3852
12	0	0	2380	77	183	401	3852
13	0	0	2394	67	184	402	3852
14	0	0	2357	53	183	401	3851
15	0	0	2398	47	183	402	3852
16	0	0	2488	45	183	402	3852
17	0	0	2556	43	184	402	3852
18	0	0	2637	49	183	402	3852
19	0	0	2697	54	184	402	3853
20	0	0	2713	60	183	401	3851
21	0	0	2707	68	184	401	3851
22	0	0	2691	74	184	402	3852
23	0	0	2652	76	184	401	3851
24	0	0	2615	84	184	401	3851
25	0	0	2567	87	184	401	3851
26	0	0	2516	86	183	401	3851
27	0	0	2498	90	184	401	3852
28	0	0	2486	85	183	401	3851
29	0	0	2466	77	183	401	3851
30	0	0	2451	71	182	401	3851
31	0	0	2454	63	184	401	3852
32	0	0	2470	55	183	402	3856
33	0	0	2494	43	184	402	3852
34	0	0	2492	33	184	402	3853
35	0	0	2555	26	184	403	3851
36	0	0	2651	23	184	402	3852
37	0	0	2711	23	183	402	3852
38	0	0	2778	29	183	402	3851
39	0	0	2835	35	184	402	3851
40	0	0	2849	43	183	401	3851
41	0	0	2846	48	184	402	3852
42	0	0	2843	55	184	401	3852
43	0	0	2836	62	184	401	3851
44	0	0	2823	70	183	401	3851
45	0	0	2779	68	184	402	3852
46	0	0	2722	68	183	402	3852
47	0	0	2685	70	184	402	3852
48	0	0	2662	68	184	402	3853
49	0	0	2650	63	184	401	3852
50	0	0	2632	55	183	401	3853
51	0	0	2629	47	185	401	3852
52	0	0	2647	38	183	402	3852
53	0	0	2683	29	183	402	3851
54	0	0	2668	18	183	402	3851
55	0	0	2716	12	185	402	3851
56	0	0	2797	9	184	402	3851
57	0	0	2855	9	184	402	3852
58	0	0	2927	14	184	402	3852
59	0	0	2991	21	184	402	3851
60	0	0	3015	27	183	402	3851
61	0	0	3026	35	185	402	3852
62	0	0	3030	42	184	402	3852
63	0	0	3010	49	184	402	3851
64	0	0	2996	57	184	402	3852
65	0	0	2976	59	184	402	3852
66	0	0	2954	60	183	402	3852
67	0	0	2958	59	183	401	3852
68	0	0	2973	58	184	402	3853
69	0	0	2978	52	183	401	3852
70	0	0	3002	46	183	402	3852
71	0	0	3031	37	183	402	3852
72	0	0	3068	28	183	402	3852
73	0	0	3113	20	184	402	3852
74	0	0	3136	8	183	402	3851
75	0	0	3217	5	184	402	3852
76	0	0	3339	4	184	402	3852
77	0	0	3443	4	183	402	3852
78	0	0	3568	6	183	402	3851
79	0	0	3681	11	183	402	3851
80	0	0	3752	18	184	402	3851
81	0	0	3819	27	184	402	3852
82	0	0	3889	35	184	402	3852
83	0	0	3944	41	183	402	3852
84	0	0	3973	49	184	401	3852
85	0	0	3987	51	184	401	3851
86	0	0	3994	53	183	402	3852
87	0	0	3992	53	184	402	3852
88	0	0	3990	49	183	401	3851
89	0	0	3987	46	185	402	3852
90	0	0	3984	38	183	402	3852
91	0	0	3979	29	184	401	3852
92	0	0	3973	21	184	402	3852
93	0	0	3965	12	183	402	3852
94	0	0	3960	5	183	402	3852
95	0	0	3957	4	183	401	3851
96	0	0	3951	4	183	402	3851
97	0	0	3944	4	183	402	3852
98	0	0	3939	4	184	402	3852
99	0	0	3933	6	184	402	3852
100	0	0	3929	13	183	402	3853
101	0	0	3923	21	184	402	3852
102	0	0	3919	27	184	402	3853
103	0	0	3911	34	184	402	3852
104	0	0	3907	42	185	402	3851
105	0	0	3901	46	184	402	3851
106	0	0	3865	42	184	402	3851
107	0	0	3847	47	184	402	3852
108	0	0	3861	45	183	402	3851
109	0	0	3868	41	184	402	3851
110	0	0	3859	32	184	402	3851
111	0	0	3780	25	184	402	3860
112	0	0	3791	17	184	402	3852
113	0	0	3826	8	184	402	3851
114	0	0	3788	4	184	402	3851
115	0	0	3819	4	184	403	3852
116	0	0	3832	3	185	402	3853
117	0	0	3834	3	183	402	3852
118	0	0	3832	4	184	403	3852
119	0	0	3830	4	184	402	3852
120	0	0	3825	8	185	402	3852
121	0	0	3822	16	184	402	3851
122	0	0	3815	24	184	402	3852
123	0	0	3811	31	183	401	3851
124	0	0	3807	39	183	402	3851
125	0	0	3801	43	185	402	3851
126	0	0	3798	45	185	402	3851
127	0	0	3792	43	184	402	3852
0	0	0	3787	41	184	402	3851
1	0	0	3783	35	183	402	3852
2	0	0	3779	29	183	402	3852
3	0	0	3773	20	184	402	3852
4	0	0	3768	13	185	402	3852
5	0	0	3765	5	183	402	3853
6	0	0	3760	3	184	402	3852
7	0	0	3512	3	184	402	3852
8	0	0	3409	2	184	402	3852
9	0	0	3316	3	183	402	3852
10	0	0	3335	4	184	402	3852
11	0	0	3439	6	184	402	3851
12	0	0	3237	4	184	402	3852
13	0	0	2984	7	183	402	3852
14	0	0	2907	21	182	402	3852
15	0	0	2933	28	183	402	3851
16	0	0	3050	35	184	402	3851
17	0	0	3291	40	184	402	3851
18	0	0	3491	41	184	401	3852
19	0	0	3594	41	183	402	3852
20	0	0	3645	38	184	401	3852
21	0	0	3671	33	182	402	3853
22	0	0	3536	20	183	402	3853
23	0	0	3276	12	183	401	3852
24	0	0	2981	5	183	402	3853
25	0	0	2819	4	185	402	3851
26	0	0	2797	3	183	403	3852
27	0	0	2843	3	185	402	3851
28	0	0	2780	3	184	401	3851
29	0	0	2699	3	184	402	3852
30	0	0	2746	3	184	402	3851
31	0	0	2878	4	183	402	3851
32	0	0	3052	5	184	402	3852
33	0	0	3259	11	184	402	3852
34	0	0	3447	19	183	402	3852
35	0	0	3546	26	184	402	3851
36	0	0	3598	33	185	402	3852
37	0	0	3598	36	183	402	3851
38	0	0	3612	39	184	402	3852
39	0	0	3628	39	184	402	3852
40	0	0	3634	36	184	402	3852
41	0	0	3612	25	183	402	3853
42	0	0	3314	18	184	404	3852
43	0	0	3130	11	184	402	3852
44	0	0	3009	5	184	402	3852
45	0	0	2886	4	184	402	3851
46	0	0	2689	3	184	402	3851
47	0	0	2552	3	183	402	3851
48	0	0	2502	3	184	402	3851
49	0	0	2480	2	184	402	3852
50	0	0	2480	3	183	402	3852
51	0	0	2468	3	184	402	3851
52	0	0	2426	4	184	402	3852
53	0	0	2401	7	184	402	3852
54	0	0	2363	13	185	402	3852
55	0	0	2326	19	184	402	3852
56	0	0	2291	27	183	402	3853
57	0	0	2245	30	183	403	3852
58	0	0	2204	34	185	402	3852
59	0	0	2163	33	183	402	3852
60	0	0	2144	32	183	402	3851
61	0	0	2135	28	184	402	3851
62	0	0	2120	20	184	402	3855
63	0	0	2104	13	185	402	3851
64	0	0	2090	5	185	402	3852
65	0	0	2083	4	184	402	3851
66	0	0	2043	2	183	402	3851
67	0	0	2066	3	185	402	3851
68	0	0	2132	3	185	402	3851
69	0	0	2202	2	182	402	3852
70	0	0	2273	3	184	402	3853
71	0	0	2321	3	184	402	3852
72	0	0	2343	5	183	402	3853
73	0	0	2361	9	184	402	3853
74	0	0	2344	15	185	402	3852
75	0	0	2319	20	183	402	3852
76	0	0	2295	29	184	402	3851
77	0	0	2252	33	183	402	3852
78	0	0	2172	30	185	402	3852
79	0	0	1985	31	184	402	3852
80	0	0	1792	27	183	402	3852
81	0	0	1626	23	184	402	3851
82	0	0	1490	15	182	402	3852
83	0	0	1387	8	184	403	3851
84	0	0	1302	5	184	402	3852
85	0	0	1231	3	184	402	3851
86	0	0	1138	2	183	402	3851
87	0	0	1086	2	184	402	3852
88	0	0	1003	2	184	402	3851
89	0	0	850	2	185	402	3852
90	0	0	701	3	183	402	3852
91	0	0	578	3	184	402	3851
92	0	0	486	4	184	402	3852
93	0	0	415	5	184	403	3852
94	0	0	363	11	184	402	3852
95	0	0	315	17	183	402	3851
96	0	0	281	24	183	402	3852
97	0	0	182	30	184	402	3851
98	0	0	0	29	184	402	3852
99	0	0	0	29	184	402	3853
100	0	0	0	27	183	402	3852
101	0	0	0	23	183	402	3852
102	0	0	0	16	184	402	3852
103	0	0	0	9	184	402	3852
104	0	0	0	4	184	402	3853
105	0	0	0	3	184	403	3852
106	0	0	0	3	183	402	3852
107	0	0	0	3	186	402	3852
108	0	0	201	2	185	402	3852
109	0	0	415	2	183	402	3852
110	0	0	522	3	184	403	3853
111	0	0	556	3	183	402	3851
112	0	0	478	3	184	402	3852
113	0	0	358	4	183	402	3853
114	0	0	329	13	183	402	3852
115	0	0	360	22	185	402	3852
116	0	0	422	29	184	402	3851
117	0	0	475	32	183	402	3852
118	0	0	448	30	185	402	3853
119	0	0	458	35	184	402	3852
120	0	0	549	33	184	402	3852
121	0	0	681	27	183	402	3852
122	0	0	876	21	185	402	3852
123	0	0	1130	13	184	403	3852
124	0	0	1439	6	184	402	3852
125	0	0	1800	4	182	402	3852
126	0	0	2099	2	182	402	3851
127	0	0	2312	2	184	402	3851
0	0	0	2409	2	184	402	3852
1	0	0	2450	2	184	402	3852
2	0	0	2580	3	183	402	3851
3	0	0	2815	3	184	402	3853
4	0	0	3106	4	185	402	3852
5	0	0	3397	8	184	403	3852
6	0	0	3571	16	184	402	3853
7	0	0	3427	16	184	402	3852
8	0	0	3003	24	183	402	3852
9	0	0	2601	29	184	402	3853
10	0	0	2297	31	184	402	3852
11	0	0	2145	31	183	402	3853
12	0	0	2063	27	184	402	3852
13	0	0	1983	23	183	402	3853
14	0	0	1914	16	184	403	3852
15	0	0	1809	8	184	402	3852
16	0	0	1618	4	183	402	3852
17	0	0	1404	3	183	402	3853
18	0	0	1175	2	185	402	3851
19	0	0	976	2	183	402	3851
20	0	0	810	2	184	403	3851
21	0	0	587	2	183	402	3852
22	0	0	440	2	184	402	3851
23	0	0	376	2	184	403	3852
24	0	0	385	3	185	402	3852
25	0	0	306	5	183	402	3852
26	0	0	168	9	184	402	3853
27	0	0	33	16	183	402	3852
28	0	0	0	25	182	402	3853
29	0	0	0	29	184	402	3852
30	0	0	0	30	184	402	3852
31	0	0	0	31	184	402	3852
32	0	0	0	29	184	402	3851
33	0	0	0	24	184	402	3852
34	0	0	0	17	184	402	3852
35	0	0	0	10	184	402	3852
36	0	0	0	4	184	402	3852
37	0	0	0	3	184	402	3851
38	0	0	126	2	184	403	3851
39	0	0	588	3	183	402	3851
40	0	0	1312	2	184	403	3852
41	0	0	1806	2	183	402	3852
42	0	0	2160	3	184	402	3853
43	0	0	2761	3	184	402	3852
44	0	0	2908	3	184	402	3853
45	0	0	2475	5	185	402	3854
46	0	0	2316	10	184	402	3853
47	0	0	2171	22	183	402	3852
48	0	0	2464	30	184	402	3851
49	0	0	3045	34	183	402	3851
50	0	0	3284	37	184	402	3852
51	0	0	3155	32	184	402	3852
52	0	0	2937	28	184	402	3852
53	0	0	2656	23	184	402	3851
54	0	0	2336	16	184	402	3852
55	0	0	2161	9	183	402	3852
56	0	0	2137	7	183	402	3852
57	0	0	2216	4	184	402	3852
58	0	0	2129	2	184	402	3852
59	0	0	2102	2	183	403	3852
60	0	0	2187	3	183	402	3852
61	0	0	2377	3	183	402	3853
62	0	0	2521	3	183	402	3852
63	0	0	2573	3	184	402	3852
64	0	0	2497	4	183	402	3852
65	0	0	2417	5	183	402	3852
66	0	0	2401	17	183	402	3852
67	0	0	2466	23	185	402	3851
68	0	0	2593	31	183	402	3852
69	0	0	2646	34	184	403	3851
70	0	0	2533	31	184	402	3852
71	0	0	2387	32	182	402	3852
72	0	0	2272	29	184	402	3852
73	0	0	2211	26	184	402	3852
74	0	0	2131	17	184	402	3852
75	0	0	2043	10	184	402	3853
76	0	0	1975	5	184	402	3852
77	0	0	1934	4	183	402	3852
78	0	0	1889	2	184	403	3853
79	0	0	1916	2	184	403	3853
80	0	0	1969	3	185	402	3852
81	0	0	1994	3	183	402	3852
82	0	0	2007	3	184	402	3852
83	0	0	1979	1	185	402	3851
84	0	0	1915	3	183	402	3851
85	0	0	1847	5	184	404	3852
86	0	0	1779	11	183	402	3852
87	0	0	1704	17	183	402	3851
88	0	0	1614	26	184	402	3852
89	0	0	1497	29	184	402	3851
90	0	0	1408	32	184	402	3852
91	0	0	1351	31	184	402	3852
92	0	0	1305	29	184	402	3852
93	0	0	1242	23	183	402	3852
94	0	0	1179	17	183	402	3852
95	0	0	1127	9	184	402	3853
96	0	0	1091	4	182	402	3852
97	0	0	1061	3	184	403	3853
98	0	0	993	3	183	402	3851
99	0	0	981	2	184	402	3851
100	0	0	1005	2	184	403	3851
101	0	0	1016	2	184	402	3852
102	0	0	1060	3	184	402	3851
103	0	0	1099	4	184	403	3851
104	0	0	1091	3	184	402	3851
105	0	0	1068	5	184	402	3852
106	0	0	1057	12	184	402	3852
107	0	0	1053	19	185	402	3852
108	0	0	1062	30	184	402	3852
109	0	0	1078	34	184	402	3852
110	0	0	1108	34	183	402	3853
111	0	0	1154	36	183	402	3852
112	0	0	1203	33	184	402	3852
113	0	0	1223	27	184	402	3853
114	0	0	1231	21	183	402	3852
115	0	0	1317	13	183	402	3852
116	0	0	1482	6	184	402	3852
117	0	0	1649	4	183	402	3851
118	0	0	1813	3	183	402	3851
119	0	0	1984	2	184	402	3851
120	0	0	2093	2	184	402	3852
121	0	0	2114	2	183	402	3852
122	0	0	2042	2	184	402	3853
123	0	0	1906	3	184	402	3852
124	0	0	1738	3	183	402	3852
125	0	0	1557	4	184	403	3852
126	0	0	1366	9	183	402	3852
127	0	0	1201	16	183	402	3852
0	0	0	1073	24	184	402	3852
1	0	0	986	27	183	402	3852
2	0	0	846	29	184	401	3852
3	0	0	588	28	183	402	3852
4	0	0	390	27	184	402	3851
5	0	0	298	23	184	402	3851
6	0	0	316	20	183	402	3852
7	0	0	456	12	184	401	3852
8	0	0	593	5	183	401	3852
9	0	0	630	4	184	402	3851
10	0	0	580	3	184	403	3851
11	0	0	586	2	184	402	3851
12	0	0	675	3	184	401	3852
13	0	0	837	2	184	402	3852
14	0	0	985	3	184	402	3853
15	0	0	1081	2	185	402	3852
16	0	0	1126	3	184	402	3853
17	0	0	1102	4	183	402	3853
18	0	0	1037	9	183	402	3853
19	0	0	984	17	184	402	3852
20	0	0	967	25	184	402	3852
21	0	0	945	28	184	402	3852
22	0	0	922	31	184	402	3852
23	0	0	921	32	183	402	3852
24	0	0	906	28	183	402	3851
25	0	0	896	23	183	402	3851
26	0	0	895	17	184	402	3852
27	0	0	905	11	183	401	3852
28	0	0	929	5	183	402	3852
29	0	0	968	4	184	402	3852
30	0	0	942	3	183	402	3852
31	0	0	958	2	183	402	3852
32	0	0	996	2	184	402	3852
33	0	0	1026	2	183	402	3853
34	0	0	1076	3	183	402	3852
35	0	0	1116	3	184	402	3852
36	0	0	1098	3	184	402	3852
37	0	0	1078	5	184	402	3853
38	0	0	1073	11	183	402	3852
39	0	0	1062	18	183	402	3852
40	0	0	1054	26	183	403	3851
41	0	0	1063	32	184	402	3852
42	0	0	1082	35	184	402	3852
43	0	0	1116	34	183	402	3852
44	0	0	1163	32	185	402	3851
45	0	0	1236	27	184	402	3852
46	0	0	1298	20	185	402	3852
47	0	0	1343	13	184	403	3852
48	0	0	1377	6	184	402	3852
49	0	0	1398	4	185	402	3852
50	0	0	1366	3	184	402	3852
51	0	0	1400	2	184	402	3851
52	0	0	1466	3	183	402	3851
53	0	0	1505	2	183	402	3852
54	0	0	1544	3	184	402	3852
55	0	0	1573	3	184	402	3851
56	0	0	1551	3	185	402	3852
57	0	0	1524	4	185	402	3852
58	0	0	1498	10	182	402	3852
59	0	0	1474	16	183	402	3851
60	0	0	1439	25	184	402	3851
61	0	0	1431	33	184	401	3851
62	0	0	1464	35	185	402	3852
63	0	0	1528	34	184	402	3853
64	0	0	1586	31	184	402	3852
65	0	0	1651	26	183	403	3852
66	0	0	1700	19	185	402	3852
67	0	0	1737	12	184	402	3853
68	0	0	1773	5	184	402	3852
69	0	0	1800	4	183	402	3853
70	0	0	1793	3	182	403	3852
71	0	0	1834	3	185	402	3851
72	0	0	1889	3	184	403	3852
73	0	0	1922	2	184	403	3852
74	0	0	1959	3	184	403	3851
75	0	0	1981	3	184	402	3851
76	0	0	1972	4	185	402	3852
77	0	0	1936	4	185	402	3852
78	0	0	1892	9	184	403	3853
79	0	0	1841	15	183	402	3852
80	0	0	1798	25	184	402	3853
81	0	0	1770	28	184	402	3853
82	0	0	1747	31	184	402	3854
83	0	0	1736	33	182	402	3852
84	0	0	1751	32	184	402	3852
85	0	0	1780	26	183	402	3852
86	0	0	1799	19	185	402	3852
87	0	0	1805	12	184	403	3852
88	0	0	1808	5	183	402	3852
89	0	0	1810	4	185	402	3852
90	0	0	1774	3	183	402	3851
91	0	0	1800	1	184	402	3851
92	0	0	1848	2	183	403	3851
93	0	0	1868	2	183	403	3852
94	0	0	1890	3	183	402	3851
95	0	0	1898	3	184	402	3853
96	0	0	1863	3	184	402	3852
97	0	0	1820	4	184	403	3852
98	0	0	1773	9	183	402	3853
99	0	0	1732	16	183	402	3852
100	0	0	1701	23	184	402	3852
101	0	0	1671	27	183	402	3852
102	0	0	1642	30	184	402	3852
103	0	0	1632	32	184	402	3852
104	0	0	1627	29	184	402	3851
105	0	0	1623	23	184	402	3851
106	0	0	1614	16	184	402	3852
107	0	0	1621	12	183	402	3853
108	0	0	1632	5	184	402	3852
109	0	0	1655	4	183	402	3852
110	0	0	1645	3	185	403	3851
111	0	0	1686	2	183	402	3852
112	0	0	1770	3	183	402	3852
113	0	0	1831	2	184	402	3852
114	0	0	1889	2	184	402	3852
115	0	0	1930	3	183	402	3852
116	0	0	1925	4	183	402	3853
117	0	0	1898	4	183	403	3852
118	0	0	1879	10	184	402	3852
119	0	0	1852	17	184	402	3852
120	0	0	1849	28	183	402	3852
121	0	0	1839	30	183	402	3851
122	0	0	1812	31	183	402	3851
123	0	0	1814	34	184	402	3852
124	0	0	1824	32	184	402	3851
125	0	0	1848	27	183	402	3853
126	0	0	1887	20	185	402	3852
127	0	0	1936	13	183	403	3852
0	0	0	1978	5	184	403	3852
1	0	0	2015	3	183	402	3851
2	0	0	2006	3	183	402	3852
3	0	0	2035	3	185	402	3852
4	0	0	2079	3	184	402	3852
5	0	0	2103	3	184	402	3852
6	0	0	2140	3	184	402	3853
7	0	0	2163	5	184	402	3852
8	0	0	2156	3	185	402	3852
9	0	0	2145	6	183	403	3852
10	0	0	2130	11	183	402	3852
11	0	0	2112	17	183	402	3851
12	0	0	2091	25	184	402	3851
13	0	0	2063	28	184	402	3851
14	0	0	2028	30	184	402	3852
15	0	0	2028	34	184	402	3852
16	0	0	2037	32	184	402	3851
17	0	0	2040	27	184	402	3852
18	0	0	2023	18	183	402	3852
19	0	0	2016	12	184	402	3852
20	0	0	2035	6	184	403	3853
21	0	0	2068	4	183	403	3853
22	0	0	2066	3	184	402	3852
23	0	0	2106	2	183	402	3853
24	0	0	2176	2	183	402	3853
25	0	0	2219	2	184	403	3852
26	0	0	2271	3	184	402	3852
27	0	0	2322	3	184	402	3851
28	0	0	2336	4	183	403	3851
29	0	0	2325	6	183	402	3852
30	0	0	2290	11	183	402	3852
31	0	0	2261	18	184	402	3852
32	0	0	2248	28	183	401	3852
33	0	0	2218	30	184	402	3852
34	0	0	2171	31	185	403	3852
35	0	0	2162	34	183	402	3853
36	0	0	2144	30	184	402	3852
37	0	0	2141	27	183	402	3852
38	0	0	2138	20	184	402	3852
39	0	0	2155	12	183	402	3853
40	0	0	2185	6	184	402	3852
41	0	0	2220	3	184	402	3852
42	0	0	2214	3	184	402	3851
43	0	0	2245	3	183	402	3851
44	0	0	2311	3	184	402	3851
45	0	0	2359	2	185	403	3852
46	0	0	2422	3	184	402	3853
47	0	0	2478	5	184	403	3852
48	0	0	2503	4	184	402	3852
49	0	0	2501	6	184	402	3853
50	0	0	2475	11	184	402	3852
51	0	0	2444	17	184	402	3852
52	0	0	2419	26	184	402	3852
53	0	0	2384	30	184	402	3852
54	0	0	2359	34	185	402	3852
55	0	0	2376	34	184	402	3852
56	0	0	2414	33	184	402	3852
57	0	0	2466	27	183	401	3853
58	0	0	2525	21	185	402	3851
59	0	0	2581	13	184	403	3852
60	0	0	2653	6	184	402	3852
61	0	0	2731	4	183	402	3852
62	0	0	2763	3	183	403	3851
63	0	0	2816	3	185	402	3851
64	0	0	2916	2	185	402	3851
65	0	0	2996	2	184	402	3852
66	0	0	3047	3	183	402	3851
67	0	0	3115	3	183	402	3853
68	0	0	3207	5	183	402	3852
69	0	0	3277	6	183	403	3852
70	0	0	3204	9	184	403	3852
71	0	0	3063	16	184	402	3852
72	0	0	2944	23	183	402	3852
73	0	0	2852	28	183	402	3851
74	0	0	2838	35	183	402	3852
75	0	0	2872	35	183	402	3852
76	0	0	2998	32	184	402	3851
77	0	0	2950	22	183	402	3851
78	0	0	2902	21	183	402	3851
79	0	0	2901	12	183	404	3851
80	0	0	3007	6	183	403	3852
81	0	0	3144	4	184	402	3851
82	0	0	3306	3	184	402	3851
83	0	0	3321	3	184	402	3852
84	0	0	3440	3	184	403	3853
85	0	0	3707	2	184	402	3852
86	0	0	3871	3	184	402	3853
87	0	0	3964	4	184	402	3852
88	0	0	4015	5	185	402	3852
89	0	0	4040	6	184	402	3853
90	0	0	4051	14	184	402	3852
91	0	0	4055	21	182	402	3853
92	0	0	4056	29	184	402	3851
93	0	0	4051	33	184	402	3851
94	0	0	4049	35	184	402	3852
95	0	0	4040	36	184	402	3852
96	0	0	4036	33	183	402	3851
97	0	0	4030	29	185	402	3852
98	0	0	4024	22	184	402	3851
99	0	0	4018	14	184	403	3852
100	0	0	4011	6	184	402	3852
101	0	0	4005	4	184	402	3852
102	0	0	3999	3	184	402	3851
103	0	0	3992	3	183	402	3852
104	0	0	3987	2	183	403	3852
105	0	0	3980	3	184	403	3852
106	0	0	3975	3	183	402	3853
107	0	0	3969	4	184	402	3852
108	0	0	3904	3	184	402	3852
109	0	0	3549	4	184	402	3851
110	0	0	3206	8	184	402	3852
111	0	0	2849	15	183	402	3851
112	0	0	2704	22	184	402	3851
113	0	0	2379	27	185	402	3850
114	0	0	2113	29	183	402	3851
115	0	0	1840	27	184	402	3852
116	0	0	1390	26	184	402	3851
117	0	0	982	21	184	402	3852
118	0	0	738	15	183	402	3852
119	0	0	647	8	184	403	3852
120	0	0	483	4	184	403	3852
121	0	0	239	3	184	402	3852
122	0	0	108	2	184	402	3852
123	0	0	36	3	183	402	3852
124	0	0	16	2	183	403	3852
125	0	0	149	2	184	403	3852
126	0	0	204	2	184	402	3851
127	0	0	191	3	181	402	3852
0	0	0	207	3	183	402	3852
1	0	0	248	6	184	403	3852
2	0	0	413	14	184	403	3852
3	0	0	623	21	184	402	3851
4	0	0	871	29	184	402	3852
5	0	0	1048	34	183	402	3852
6	0	0	1174	35	183	402	3852
7	0	0	1330	35	184	402	3853
8	0	0	1408	32	184	401	3852
9	0	0	1408	24	185	402	3852
10	0	0	1426	21	183	402	3852
11	0	0	1559	13	183	403	3852
12	0	0	1565	4	183	403	3852
13	0	0	1428	4	182	402	3853
14	0	0	1260	3	183	402	3852
15	0	0	1246	3	184	402	3851
16	0	0	1295	2	185	402	3851
17	0	0	1342	2	184	402	3852
18	0	0	1387	3	184	402	3852
19	0	0	1364	4	184	402	3851
20	0	0	1289	4	183	402	3851
21	0	0	1204	4	184	403	3852
22	0	0	1145	10	184	403	3852
23	0	0	1142	17	183	402	3851
24	0	0	1122	25	184	401	3853
25	0	0	1067	28	184	402	3852
26	0	0	1039	32	185	402	3852
27	0	0	1071	35	184	402	3852
28	0	0	1130	32	184	402	3853
29	0	0	1262	27	184	402	3852
30	0	0	1355	22	183	402	3852
31	0	0	1433	13	183	402	3852
32	0	0	1495	6	183	403	3852
33	0	0	1572	4	183	402	3851
34	0	0	1622	3	184	401	3852
35	0	0	1639	4	183	402	3851
36	0	0	1565	2	183	403	3852
37	0	0	1475	2	185	403	3852
38	0	0	1444	3	185	402	3851
39	0	0	1482	3	184	402	3852
40	0	0	1531	4	184	402	3852
41	0	0	1590	6	183	402	3853
42	0	0	1671	15	184	402	3853
43	0	0	1744	21	183	402	3852
44	0	0	1789	29	184	401	3852
45	0	0	1804	34	184	401	3852
46	0	0	1817	35	184	402	3852
47	0	0	1852	36	184	402	3852
48	0	0	1899	34	184	402	3851
49	0	0	1922	29	183	401	3853
50	0	0	1886	18	184	402	3852
51	0	0	1850	11	184	402	3851
52	0	0	1837	5	184	402	3852
53	0	0	1839	4	184	402	3851
54	0	0	1810	3	183	402	3852
55	0	0	1821	2	184	402	3852
56	0	0	1843	4	183	402	3851
57	0	0	1813	2	183	402	3852
58	0	0	1775	3	184	402	3852
59	0	0	1767	4	183	402	3852
60	0	0	1762	3	184	402	3853
61	0	0	1771	6	183	402	3852
62	0	0	1773	15	185	402	3853
63	0	0	1762	18	184	402	3852
64	0	0	1721	26	184	402	3851
65	0	0	1668	29	184	402	3851
66	0	0	1619	30	184	402	3852
67	0	0	1599	33	184	402	3852
68	0	0	1583	29	184	402	3851
69	0	0	1576	26	183	402	3852
70	0	0	1581	21	183	402	3852
71	0	0	1612	13	183	402	3852
72	0	0	1644	6	184	402	3852
73	0	0	1664	4	184	402	3853
74	0	0	1612	2	183	403	3851
75	0	0	1550	3	184	402	3852
76	0	0	1508	2	183	402	3853
77	0	0	1487	2	183	402	3852
78	0	0	1515	3	184	402	3852
79	0	0	1573	3	183	403	3852
80	0	0	1618	4	184	402	3852
81	0	0	1642	7	184	402	3852
82	0	0	1658	15	183	402	3852
83	0	0	1675	22	184	402	3851
84	0	0	1686	30	183	402	3852
85	0	0	1671	31	184	402	3852
86	0	0	1645	33	185	402	3851
87	0	0	1650	37	183	402	3852
88	0	0	1671	34	184	402	3853
89	0	0	1697	29	184	402	3852
90	0	0	1708	23	183	402	3852
91	0	0	1717	14	184	402	3853
92	0	0	1731	7	183	402	3852
93	0	0	1742	4	183	402	3852
94	0	0	1695	2	183	402	3853
95	0	0	1661	3	184	402	3852
96	0	0	1666	3	184	402	3853
97	0	0	1622	2	182	402	3852
98	0	0	1562	3	184	402	3852
99	0	0	1500	3	184	403	3851
100	0	0	1407	1	184	402	3852
101	0	0	1253	4	184	403	3852
102	0	0	1128	11	183	402	3852
103	0	0	1116	18	184	402	3851
104	0	0	1063	26	184	402	3851
105	0	0	1011	30	184	402	3851
106	0	0	878	30	185	402	3851
107	0	0	699	33	184	402	3852
108	0	0	512	28	183	402	3852
109	0	0	364	25	184	402	3853
110	0	0	286	18	184	402	3852
111	0	0	247	11	184	402	3852
112	0	0	228	5	183	402	3853
113	0	0	220	4	184	402	3841
114	0	0	218	3	184	402	3852
115	0	0	219	3	183	402	3852
116	0	0	222	2	183	402	3852
117	0	0	226	2	183	402	3852
118	0	0	250	3	183	402	3851
119	0	0	552	4	184	402	3852
120	0	0	818	5	183	402	3852
121	0	0	942	9	183	402	3852
122	0	0	932	13	183	402	3853
123	0	0	961	24	184	402	3852
124	0	0	1050	31	184	402	3853
125	0	0	1214	35	184	402	3852
126	0	0	1474	38	184	402	3852
127	0	0	1751	38	185	401	3852
0	0	0	1910	35	184	402	3852
1	0	0	2005	31	184	402	3852
2	0	0	2081	23	183	402	3852
3	0	0	2215	16	183	403	3852
4	0	0	2348	8	184	402	3852
5	0	0	2509	5	184	402	3851
6	0	0	2701	3	183	402	3851
7	0	0	3149	3	184	402	3851
8	0	0	3223	3	184	402	3851
9	0	0	2801	2	183	402	3852
10	0	0	2559	3	184	402	3853
11	0	0	2484	3	184	403	3852
12	0	0	2385	4	184	402	3852
13	0	0	2305	5	183	402	3853
14	0	0	1868	9	184	402	3852
15	0	0	1537	17	184	402	3852
16	0	0	1495	30	183	402	3852
17	0	0	1508	29	184	402	3852
18	0	0	1453	35	184	402	3852
19	0	0	1664	37	184	402	3852
20	0	0	2155	33	184	402	3851
21	0	0	2836	30	184	402	3851
22	0	0	3414	23	183	402	3851
23	0	0	3331	9	184	402	3851
24	0	0	3042	4	184	402	3852
25	0	0	2867	4	184	402	3851
26	0	0	2826	2	183	402	3851
27	0	0	2732	3	184	402	3851
28	0	0	2677	2	184	403	3852
29	0	0	2788	2	183	402	3852
30	0	0	3000	3	184	402	3853
31	0	0	3073	3	184	402	3852
32	0	0	2996	4	184	402	3852
33	0	0	2942	5	184	402	3853
34	0	0	2887	10	183	402	3852
35	0	0	2803	17	184	402	3853
36	0	0	2712	26	184	402	3851
37	0	0	2614	29	184	402	3851
38	0	0	2550	30	185	402	3852
39	0	0	2508	32	184	401	3852
40	0	0	2483	32	185	402	3851
41	0	0	2461	25	183	402	3853
42	0	0	2423	18	184	402	3852
43	0	0	2428	13	184	402	3852
44	0	0	2443	6	184	402	3852
45	0	0	2478	4	184	402	3852
46	0	0	2473	3	184	402	3851
47	0	0	2494	2	184	402	3852
48	0	0	2543	2	183	402	3852
49	0	0	2580	2	183	403	3853
50	0	0	2629	3	184	402	3852
51	0	0	2672	3	184	402	3852
52	0	0	2694	5	184	402	3852
53	0	0	2695	6	184	402	3851
54	0	0	2682	14	185	401	3852
55	0	0	2667	21	184	402	3852
56	0	0	2638	25	183	402	3851
57	0	0	2599	30	185	402	3851
58	0	0	2702	35	184	402	3852
59	0	0	2775	36	184	402	3852
60	0	0	2690	28	184	402	3853
61	0	0	2599	23	184	403	3852
62	0	0	2445	16	184	402	3852
63	0	0	2181	7	183	402	3852
64	0	0	1910	4	184	402	3852
65	0	0	1639	3	183	402	3852
66	0	0	1398	2	184	403	3854
67	0	0	1126	3	183	402	3852
68	0	0	862	2	183	403	3852
69	0	0	692	2	184	402	3852
70	0	0	632	3	183	402	3851
71	0	0	668	3	184	402	3851
72	0	0	515	4	183	402	3852
73	0	0	371	5	184	402	3852
74	0	0	294	10	184	401	3852
75	0	0	254	18	184	402	3852
76	0	0	235	27	184	402	3851
77	0	0	228	31	183	402	3851
78	0	0	226	32	185	402	3852
79	0	0	228	33	183	402	3852
80	0	0	231	31	184	402	3852
81	0	0	297	25	183	402	3852
82	0	0	267	19	183	402	3852
83	0	0	257	10	184	402	3852
84	0	0	257	5	182	402	3853
85	0	0	259	4	184	403	3852
86	0	0	262	3	183	402	3852
87	0	0	267	2	184	402	3852
88	0	0	271	2	184	403	3852
89	0	0	278	2	185	401	3852
90	0	0	283	3	183	402	3851
91	0	0	288	3	184	402	3851
92	0	0	293	4	184	403	3852
93	0	0	296	4	185	403	3852
94	0	0	304	13	185	402	3852
95	0	0	309	19	185	402	3852
96	0	0	313	28	184	402	3852
97	0	0	319	32	183	402	3852
98	0	0	323	33	184	402	3852
99	0	0	329	34	183	402	3853
100	0	0	333	30	183	402	3852
101	0	0	338	26	182	402	3853
102	0	0	343	20	184	402	3853
103	0	0	348	12	184	402	3851
104	0	0	353	5	183	402	3852
105	0	0	357	3	183	402	3851
106	0	0	362	3	182	402	3851
107	0	0	368	2	183	403	3851
108	0	0	372	2	184	403	3851
109	0	0	376	2	183	401	3852
110	0	0	381	2	183	402	3853
111	0	0	386	3	183	403	3852
112	0	0	391	3	184	402	3852
113	0	0	395	6	183	402	3853
114	0	0	400	13	184	402	3852
115	0	0	405	19	183	402	3852
116	0	0	410	25	183	403	3852
117	0	0	414	31	184	403	3852
118	0	0	418	34	185	402	3852
119	0	0	423	34	184	401	3852
120	0	0	428	32	183	402	3851
121	0	0	432	27	183	402	3852
122	0	0	437	19	184	402	3851
123	0	0	441	12	183	403	3851
124	0	0	446	5	184	402	3852
125	0	0	450	4	184	402	3851
126	0	0	455	2	183	403	3852
127	0	0	460	3	184	402	3852
0	0	0	464	2	183	402	3851
1	0	0	468	2	184	401	3852
2	0	0	473	2	182	402	3852
3	0	0	548	3	183	402	3852
4	0	0	686	4	183	403	3852
5	0	0	782	8	184	402	3852
6	0	0	847	16	183	401	3852
7	0	0	900	22	183	402	3853
8	0	0	950	31	186	402	3852
9	0	0	991	37	183	402	3852
10	0	0	1024	38	184	402	3852
11	0	0	1067	38	184	402	3852
12	0	0	1117	35	183	402	3851
13	0	0	1168	32	184	403	3851
14	0	0	1209	24	183	403	3852
15	0	0	1248	17	184	402	3851
16	0	0	1292	8	185	402	3852
17	0	0	1350	4	183	402	3852
18	0	0	1380	4	183	402	3852
19	0	0	1450	4	184	402	3852
20	0	0	1542	2	183	402	3852
21	0	0	1608	3	184	401	3852
22	0	0	1665	3	184	402	3852
23	0	0	1708	4	184	402	3852
24	0	0	1725	6	183	402	3852
25	0	0	1721	7	184	402	3851
26	0	0	1718	17	183	402	3853
27	0	0	1725	23	184	402	3852
28	0	0	1729	31	184	402	3851
29	0	0	1731	35	184	402	3851
30	0	0	1738	37	184	402	3852
31	0	0	1760	38	183	402	3852
32	0	0	1792	35	184	402	3851
33	0	0	1834	31	184	403	3852
34	0	0	1875	24	183	402	3852
35	0	0	1922	15	185	402	3852
36	0	0	1983	9	184	402	3852
37	0	0	2055	4	184	402	3852
38	0	0	2095	3	184	403	3853
39	0	0	2163	3	184	402	3853
40	0	0	2260	2	184	402	3851
41	0	0	2335	3	184	402	3853
42	0	0	2406	3	184	402	3851
43	0	0	2478	4	184	402	3851
44	0	0	2522	4	183	402	3851
45	0	0	2534	7	184	402	3852
46	0	0	2544	17	185	402	3852
47	0	0	2551	23	184	402	3851
48	0	0	2556	29	184	402	3851
49	0	0	2552	37	184	402	3851
50	0	0	2549	38	184	402	3851
51	0	0	2572	38	185	402	3852
52	0	0	2608	35	183	402	3853
53	0	0	2643	30	184	403	3852
54	0	0	2670	24	184	402	3852
55	0	0	2702	15	184	402	3852
56	0	0	2745	8	184	403	3853
57	0	0	2788	5	184	402	3852
58	0	0	2810	3	184	402	3851
59	0	0	2862	2	183	403	3851
60	0	0	2938	3	183	402	3852
61	0	0	2996	2	183	402	3852
62	0	0	3059	2	184	403	3852
63	0	0	3114	4	183	402	3851
64	0	0	3126	4	185	403	3851
65	0	0	3104	7	183	402	3851
66	0	0	3080	16	183	402	3852
67	0	0	3053	22	184	402	3852
68	0	0	3033	31	184	402	3853
69	0	0	2999	32	184	402	3853
70	0	0	2960	36	185	402	3852
71	0	0	2947	37	184	402	3852
72	0	0	2945	35	183	402	3852
73	0	0	2946	31	184	402	3852
74	0	0	2934	24	184	402	3852
75	0	0	2929	15	183	402	3853
76	0	0	2931	8	184	402	3852
77	0	0	2952	4	184	402	3851
78	0	0	2942	3	185	402	3851
79	0	0	2978	4	184	402	3851
80	0	0	3041	2	184	402	3852
81	0	0	3081	3	184	402	3852
82	0	0	3134	3	184	402	3851
83	0	0	3195	3	184	402	3852
84	0	0	3219	5	184	402	3852
85	0	0	3210	9	184	402	3852
86	0	0	3197	17	184	402	3852
87	0	0	3175	23	184	402	3852
88	0	0	3147	29	184	402	3853
89	0	0	3095	31	183	402	3853
90	0	0	3038	32	184	402	3852
91	0	0	2996	34	184	402	3852
92	0	0	2964	32	183	402	3851
93	0	0	2945	31	184	402	3851
94	0	0	2918	23	184	402	3851
95	0	0	2893	15	185	402	3851
96	0	0	2877	7	184	402	3852
97	0	0	2872	4	183	402	3851
98	0	0	2833	4	184	402	3851
99	0	0	2846	3	183	402	3852
100	0	0	2890	3	184	402	3851
101	0	0	2926	2	184	402	3852
102	0	0	2969	3	184	402	3853
103	0	0	3015	3	184	402	3852
104	0	0	3022	4	181	402	3852
105	0	0	3011	6	184	402	3853
106	0	0	2987	15	183	402	3852
107	0	0	2956	18	183	402	3853
108	0	0	2916	26	184	402	3851
109	0	0	2860	30	184	402	3851
110	0	0	2801	33	184	402	3852
111	0	0	2756	32	184	402	3851
112	0	0	2716	31	184	402	3852
113	0	0	2709	29	183	401	3851
114	0	0	2696	23	183	403	3851
115	0	0	2684	15	184	402	3852
116	0	0	2689	7	184	402	3852
117	0	0	2710	4	184	402	3852
118	0	0	2692	3	183	402	3851
119	0	0	2706	3	183	402	3852
120	0	0	2723	3	184	402	3852
121	0	0	2746	3	184	402	3853
122	0	0	2785	2	184	402	3852
123	0	0	2820	4	183	402	3852
124	0	0	2793	4	183	402	3852
125	0	0	2752	5	183	402	3852
126	0	0	2707	11	183	402	3852
127	0	0	2656	17	185	403	3852
0	0	0	2607	26	184	402	3851
1	0	0	2540	30	183	401	3851
2	0	0	2470	32	184	402	3852
3	0	0	2429	32	183	402	3851
4	0	0	2398	30	184	402	3851
5	0	0	2372	26	183	402	3852
6	0	0	2327	17	183	402	3852
7	0	0	2260	11	183	402	3852
8	0	0	2253	6	184	402	3852
9	0	0	2260	4	183	402	3852
10	0	0	2225	3	184	402	3852
